Timestamp,Sensor Data
0.0,508
0.001,511
0.001,513
0.001,515
0.001,517
0.001,519
0.003,522
0.003,524
0.004,526
0.004,529
0.004,531
0.004,533
0.005,535
0.005,536
0.005,537
0.005,538
0.005,539
0.006,539
0.006,539
0.008,539
0.008,539
0.008,538
0.009,537
0.009,536
0.009,534
0.01,532
0.01,530
0.01,528
0.011,526
0.011,523
0.011,521
0.011,519
0.013,517
0.013,515
0.013,512
0.014,510
0.014,508
0.014,504
0.016,500
0.016,497
0.016,495
0.016,492
0.017,490
0.017,487
0.018,486
0.019,485
0.019,484
0.019,483
0.019,483
0.019,482
0.019,483
0.022,483
0.022,484
0.022,486
0.022,487
0.023,490
0.023,493
0.025,496
0.025,499
0.025,503
0.025,507
0.025,511
0.026,515
0.026,518
0.027,522
0.027,526
0.027,529
0.027,532
0.028,533
0.028,534
0.03,534
0.03,535
0.03,534
0.03,534
0.03,532
0.031,530
0.033,528
0.033,525
0.033,521
0.033,518
0.033,514
0.033,511
0.033,508
0.035,506
0.035,503
0.035,500
0.035,497
0.035,494
0.036,492
0.038,490
0.038,488
0.038,486
0.038,484
0.038,483
0.038,482
0.038,482
0.041,482
0.041,482
0.041,483
0.041,484
0.041,485
0.041,485
0.044,486
0.044,487
0.044,489
0.044,491
0.044,495
0.044,499
0.046,503
0.046,507
0.046,512
0.046,516
0.046,519
0.046,523
0.047,526
0.049,528
0.049,531
0.049,534
0.049,535
0.049,536
0.049,536
0.052,535
0.052,533
0.052,531
0.052,529
0.052,526
0.053,524
0.053,521
0.054,519
0.054,516
0.054,513
0.054,510
0.054,507
0.054,504
0.057,501
0.057,498
0.057,495
0.057,493
0.057,490
0.057,488
0.06,487
0.06,486
0.06,485
0.06,485
0.06,486
0.061,486
0.061,487
0.063,489
0.063,491
0.063,492
0.063,495
0.063,498
0.063,501
0.065,504
0.065,508
0.065,512
0.065,516
0.065,519
0.065,523
0.066,526
0.067,528
0.067,531
0.068,534
0.068,536
0.068,537
0.068,538
0.07,538
0.07,537
0.07,536
0.07,534
0.07,532
0.071,529
0.073,526
0.073,522
0.073,519
0.073,516
0.073,512
0.073,508
0.073,505
0.075,501
0.076,497
0.076,494
0.076,490
0.076,487
0.076,484
0.078,482
0.078,480
0.078,478
0.078,478
0.079,477
0.079,477
0.079,477
0.081,478
0.081,479
0.081,481
0.081,483
0.081,485
0.081,488
0.084,491
0.084,495
0.084,499
0.084,503
0.084,506
0.084,511
0.087,515
0.087,518
0.087,521
0.087,523
0.088,526
0.088,528
0.088,529
0.09,530
0.09,531
0.09,532
0.09,531
0.09,530
0.09,529
0.093,526
0.093,524
0.093,521
0.093,518
0.093,514
0.093,510
0.093,506
0.096,502
0.096,498
0.096,495
0.096,492
0.096,489
0.096,486
0.098,484
0.098,482
0.098,479
0.098,477
0.098,476
0.098,475
0.101,475
0.101,475
0.101,476
0.101,477
0.101,479
0.101,480
0.101,482
0.103,484
0.103,486
0.103,489
0.103,493
0.103,497
0.103,500
0.106,504
0.106,507
0.106,511
0.106,514
0.106,517
0.106,521
0.106,523
0.109,526
0.109,528
0.109,528
0.109,529
0.109,528
0.109,528
0.111,527
0.111,525
0.111,524
0.112,521
0.112,518
0.112,515
0.113,512
0.113,509
0.114,506
0.114,502
0.114,499
0.114,496
0.114,493
0.117,489
0.117,487
0.117,485
0.117,483
0.117,482
0.117,480
0.12,479
0.12,479
0.12,479
0.12,480
0.12,481
0.121,482
0.121,483
0.123,485
0.123,487
0.123,488
0.123,491
0.123,493
0.123,496
0.125,500
0.125,505
0.125,509
0.125,514
0.125,518
0.125,522
0.128,526
0.128,528
0.128,531
0.128,533
0.128,535
0.128,536
0.128,537
0.131,538
0.131,537
0.131,536
0.131,535
0.131,533
0.131,531
0.133,528
0.133,525
0.134,522
0.134,519
0.134,516
0.134,513
0.134,510
0.136,506
0.136,504
0.136,501
0.136,498
0.137,496
0.137,493
0.139,491
0.139,489
0.139,488
0.139,486
0.139,486
0.139,486
0.142,486
0.142,487
0.142,487
0.142,489
0.142,490
0.142,492
0.142,495
0.144,498
0.145,501
0.145,505
0.145,509
0.145,513
0.145,517
0.147,520
0.147,524
0.147,528
0.147,531
0.147,533
0.147,535
0.147,537
0.15,538
0.15,540
0.15,540
0.15,540
0.15,540
0.15,539
0.152,537
0.152,534
0.152,532
0.152,529
0.152,526
0.152,522
0.155,519
0.155,515
0.155,511
0.155,508
0.155,505
0.155,502
0.155,500
0.158,497
0.158,494
0.158,492
0.158,490
0.158,488
0.158,487
0.161,487
0.161,487
0.161,487
0.161,489
0.161,489
0.161,491
0.161,492
0.163,494
0.163,496
0.163,498
0.163,501
0.163,504
0.163,507
0.166,510
0.166,514
0.166,518
0.166,522
0.166,525
0.166,528
0.168,531
0.169,533
0.169,535
0.169,536
0.169,537
0.169,536
0.169,535
0.171,533
0.171,532
0.171,529
0.171,527
0.171,524
0.172,521
0.174,517
0.174,514
0.174,510
0.174,507
0.174,503
0.174,500
0.174,497
0.177,495
0.177,492
0.177,490
0.177,487
0.177,485
0.177,483
0.179,482
0.179,482
0.18,481
0.18,481
0.18,482
0.18,483
0.182,485
0.182,486
0.182,488
0.182,491
0.182,493
0.183,497
0.183,501
0.185,504
0.185,507
0.185,511
0.185,514
0.185,518
0.185,521
0.187,525
0.187,527
0.188,530
0.188,532
0.188,534
0.188,535
0.188,536
0.19,536
0.19,536
0.19,535
0.19,533
0.19,531
0.19,528
0.193,525
0.193,521
0.193,518
0.193,514
0.193,510
0.193,506
0.196,503
0.196,500
0.196,496
0.196,494
0.196,490
0.196,487
0.196,485
0.199,483
0.199,481
0.199,480
0.199,480
0.199,479
0.199,479
0.201,480
0.201,481
0.201,482
0.201,483
0.201,485
0.201,488
0.202,491
0.204,494
0.204,498
0.205,502
0.205,506
0.205,510
0.205,515
0.206,519
0.206,523
0.206,527
0.206,530
0.207,534
0.207,537
0.21,538
0.21,539
0.21,539
0.21,538
0.21,538
0.21,537
0.21,536
0.212,534
0.212,532
0.212,529
0.212,525
0.212,522
0.212,518
0.215,515
0.215,511
0.216,507
0.216,504
0.216,501
0.216,498
0.216,495
0.218,492
0.218,490
0.218,488
0.218,486
0.218,485
0.218,483
0.22,482
0.22,481
0.22,482
0.22,482
0.22,483
0.22,484
0.222,486
0.222,487
0.222,489
0.222,493
0.223,496
0.223,500
0.223,505
0.226,509
0.226,514
0.226,518
0.226,522
0.226,525
0.226,529
0.228,532
0.228,534
0.228,536
0.229,537
0.229,538
0.229,538
0.229,538
0.231,537
0.231,536
0.231,534
0.231,532
0.231,530
0.231,527
0.233,524
0.233,521
0.233,518
0.233,515
0.235,512
0.235,508
0.236,506
0.237,502
0.237,499
0.237,497
0.237,495
0.238,493
0.238,491
0.24,490
0.24,488
0.24,488
0.24,488
0.24,487
0.24,488
0.242,489
0.242,490
0.242,491
0.242,493
0.242,496
0.242,499
0.242,504
0.245,507
0.245,511
0.245,516
0.245,520
0.245,523
0.245,527
0.247,529
0.247,531
0.247,533
0.247,535
0.247,537
0.247,538
0.25,539
0.25,540
0.25,540
0.25,540
0.25,539
0.25,537
0.251,535
0.253,532
0.253,529
0.253,525
0.254,522
0.254,518
0.254,515
0.256,511
0.256,508
0.256,504
0.256,501
0.256,497
0.256,495
0.256,492
0.258,490
0.258,487
0.258,486
0.258,484
0.258,483
0.258,483
0.261,483
0.261,483
0.261,484
0.261,486
0.261,488
0.261,490
0.263,493
0.263,495
0.264,498
0.264,501
0.264,505
0.264,509
0.264,514
0.266,518
0.266,523
0.266,526
0.266,530
0.266,534
0.266,537
0.269,539
0.269,540
0.269,541
0.269,542
0.269,542
0.27,541
0.27,539
0.271,538
0.272,535
0.272,532
0.272,528
0.272,524
0.272,520
0.275,516
0.275,512
0.275,508
0.275,504
0.275,500
0.275,498
0.278,496
0.278,493
0.278,490
0.278,489
0.278,487
0.278,486
0.278,485
0.28,485
0.281,485
0.281,486
0.281,486
0.281,488
0.281,489
0.283,491
0.283,493
0.283,495
0.283,498
0.283,501
0.283,504
0.283,508
0.286,513
0.286,517
0.286,521
0.286,525
0.286,528
0.286,532
0.288,535
0.288,537
0.288,539
0.288,540
0.288,541
0.288,541
0.291,540
0.291,539
0.291,539
0.291,537
0.291,535
0.291,532
0.291,529
0.294,526
0.294,522
0.294,519
0.294,515
0.294,512
0.295,510
0.297,507
0.297,504
0.297,501
0.297,498
0.298,495
0.298,492
0.298,489
0.299,487
0.299,485
0.299,483
0.299,483
0.299,483
0.299,483
0.302,484
0.302,486
0.302,488
0.302,490
0.302,492
0.302,496
0.304,500
0.305,503
0.305,507
0.305,512
0.305,517
0.305,522
0.305,526
0.307,530
0.307,533
0.307,536
0.307,538
0.308,540
0.308,542
0.31,543
0.31,544
0.31,545
0.31,545
0.31,544
0.31,542
0.31,539
0.313,537
0.313,534
0.313,531
0.313,527
0.313,524
0.313,520
0.316,517
0.316,514
0.316,511
0.316,508
0.316,505
0.316,502
0.318,500
0.318,498
0.318,496
0.318,494
0.318,493
0.318,492
0.318,491
0.321,491
0.321,492
0.321,492
0.321,494
0.321,496
0.321,497
0.324,500
0.324,502
0.324,505
0.324,508
0.324,511
0.324,514
0.324,518
0.326,521
0.326,525
0.326,529
0.326,533
0.326,536
0.326,538
0.328,541
0.329,542
0.329,543
0.329,544
0.329,545
0.329,544
0.331,543
0.331,541
0.331,538
0.331,534
0.331,531
0.332,527
0.332,524
0.334,521
0.334,517
0.334,514
0.334,510
0.334,508
0.334,505
0.336,503
0.336,501
0.337,498
0.337,496
0.337,494
0.337,493
0.337,493
0.339,492
0.339,492
0.339,492
0.339,492
0.339,493
0.339,494
0.343,495
0.343,497
0.343,500
0.343,503
0.343,506
0.344,510
0.346,514
0.346,517
0.346,521
0.346,525
0.346,529
0.346,533
0.346,537
0.348,540
0.348,543
0.348,545
0.348,547
0.348,549
0.348,550
0.351,550
0.351,550
0.351,548
0.351,547
0.351,545
0.351,543
0.351,540
0.354,537
0.354,534
0.354,531
0.354,527
0.354,523
0.354,519
0.357,516
0.357,513
0.357,510
0.357,507
0.357,504
0.357,502
0.359,500
0.359,498
0.359,496
0.359,495
0.359,494
0.359,493
0.359,493
0.362,493
0.362,494
0.362,495
0.362,496
0.362,498
0.362,501
0.365,504
0.365,508
0.365,511
0.365,515
0.365,519
0.365,523
0.365,528
0.367,532
0.367,536
0.367,539
0.368,543
0.368,546
0.368,547
0.37,549
0.37,549
0.37,549
0.371,548
0.371,547
0.371,544
0.373,542
0.373,538
0.373,535
0.373,531
0.373,528
0.373,524
0.373,521
0.376,517
0.376,513
0.376,509
0.376,506
0.376,504
0.376,501
0.378,499
0.378,497
0.378,495
0.378,493
0.378,492
0.378,491
0.378,491
0.381,491
0.381,491
0.381,492
0.381,493
0.381,494
0.381,496
0.384,498
0.384,501
0.384,504
0.384,507
0.384,510
0.384,513
0.386,517
0.386,520
0.386,524
0.386,529
0.387,532
0.387,536
0.387,539
0.389,541
0.389,543
0.389,544
0.389,545
0.389,545
0.389,544
0.392,542
0.392,540
0.392,538
0.392,535
0.392,532
0.392,529
0.392,526
0.395,524
0.395,521
0.395,517
0.395,514
0.395,510
0.395,506
0.397,503
0.397,500
0.397,497
0.397,496
0.398,494
0.398,492
0.4,491
0.4,490
0.4,489
0.4,489
0.4,489
0.4,490
0.4,491
0.403,492
0.403,494
0.403,496
0.403,498
0.403,501
0.403,504
0.405,508
0.405,512
0.405,516
0.406,520
0.406,523
0.406,527
0.406,529
0.408,532
0.408,534
0.408,537
0.408,538
0.408,539
0.408,540
0.411,540
0.411,539
0.411,539
0.411,537
0.411,535
0.411,532
0.414,529
0.414,525
0.414,522
0.414,518
0.414,515
0.414,511
0.414,508
0.416,505
0.416,501
0.417,498
0.417,494
0.417,491
0.417,489
0.419,487
0.419,485
0.419,483
0.419,482
0.419,481
0.419,480
0.419,479
0.422,479
0.422,479
0.422,479
0.422,480
0.422,482
0.422,484
0.424,486
0.424,489
0.424,493
0.424,496
0.424,500
0.424,504
0.427,508
0.427,512
0.427,516
0.427,520
0.427,523
0.427,525
0.427,528
0.43,530
0.43,530
0.43,530
0.43,530
0.43,529
0.43,528
0.433,526
0.433,524
0.433,522
0.433,519
0.433,516
0.433,513
0.434,510
0.435,507
0.435,503
0.435,500
0.435,496
0.435,493
0.435,490
0.437,487
0.437,484
0.438,481
0.438,479
0.438,478
0.438,476
0.441,475
0.441,475
0.441,475
0.441,476
0.441,478
0.441,479
0.441,481
0.444,484
0.444,486
0.444,489
0.444,492
0.444,496
0.444,499
0.446,504
0.446,508
0.446,512
0.446,516
0.446,519
0.446,523
0.447,526
0.449,528
0.449,531
0.449,532
0.449,534
0.449,534
0.449,534
0.451,532
0.451,531
0.452,530
0.452,527
0.452,524
0.452,521
0.455,517
0.455,514
0.455,510
0.455,507
0.455,503
0.455,500
0.456,498
0.457,495
0.457,492
0.457,489
0.457,487
0.457,485
0.457,484
0.46,482
0.46,481
0.46,481
0.46,481
0.46,480
0.461,481
0.461,483
0.463,484
0.463,486
0.463,488
0.463,490
0.463,493
0.463,496
0.465,500
0.465,503
0.466,507
0.466,511
0.466,516
0.466,520
0.468,524
0.468,526
0.468,530
0.469,533
0.469,536
0.469,537
0.469,538
0.471,538
0.471,538
0.471,537
0.472,535
0.472,534
0.472,531
0.474,528
0.474,524
0.474,520
0.474,516
0.474,513
0.474,509
0.474,505
0.476,502
0.476,499
0.476,496
0.476,492
0.476,490
0.476,488
0.479,486
0.479,484
0.479,483
0.479,482
0.479,482
0.479,482
0.482,482
0.482,483
0.482,484
0.482,486
0.482,488
0.482,491
0.482,494
0.484,497
0.484,501
0.484,504
0.484,507
0.484,511
0.484,515
0.487,519
0.488,522
0.488,524
0.488,526
0.488,528
0.488,529
0.488,531
0.49,532
0.49,533
0.49,532
0.49,531
0.49,531
0.49,529
0.493,526
0.493,524
0.493,520
0.493,517
0.493,514
0.493,510
0.495,507
0.495,503
0.495,499
0.495,496
0.495,493
0.495,490
0.496,487
0.497,484
0.497,482
0.497,480
0.498,478
0.498,477
0.498,477
0.501,476
0.501,476
0.501,476
0.501,477
0.501,477
0.501,479
0.502,480
0.503,482
0.503,484
0.503,487
0.503,490
0.505,493
0.505,496
0.506,500
0.506,503
0.506,506
0.506,510
0.506,514
0.506,517
0.509,520
0.509,523
0.509,525
0.509,527
0.509,528
0.509,529
0.509,529
0.512,528
0.512,527
0.512,525
0.512,523
0.512,520
0.512,517
0.514,514
0.514,511
0.514,507
0.514,503
0.515,499
0.515,495
0.515,492
0.517,489
0.517,486
0.517,484
0.517,481
0.517,480
0.517,479
0.519,477
0.519,477
0.52,476
0.52,477
0.52,477
0.52,477
0.522,479
0.522,479
0.522,481
0.522,483
0.522,486
0.522,489
0.523,493
0.525,497
0.525,501
0.525,505
0.525,509
0.525,513
0.525,517
0.527,521
0.528,524
0.528,527
0.528,530
0.528,532
0.528,533
0.528,534
0.53,535
0.53,535
0.53,533
0.53,532
0.53,531
0.53,529
0.533,527
0.533,524
0.533,520
0.533,518
0.533,514
0.533,511
0.536,509
0.536,505
0.536,502
0.536,498
0.536,495
0.536,492
0.536,489
0.539,486
0.539,484
0.539,482
0.539,481
0.539,480
0.539,480
0.542,481
0.542,482
0.542,484
0.542,486
0.542,488
0.542,491
0.542,494
0.544,498
0.544,502
0.544,505
0.544,509
0.544,513
0.544,517
0.547,520
0.547,523
0.547,526
0.547,530
0.547,533
0.547,536
0.55,538
0.55,540
0.55,541
0.55,542
0.55,543
0.55,543
0.55,543
0.552,541
0.552,539
0.552,537
0.553,534
0.553,530
0.553,527
0.555,523
0.555,519
0.555,515
0.555,511
0.555,507
0.555,503
0.555,499
0.558,495
0.558,493
0.558,491
0.558,489
0.558,487
0.558,486
0.56,486
0.561,486
0.561,486
0.561,486
0.561,486
0.561,487
0.563,489
0.563,490
0.563,492
0.563,495
0.563,497
0.563,500
0.563,504
0.566,508
0.566,512
0.566,515
0.566,518
0.566,522
0.566,524
0.569,527
0.569,529
0.569,531
0.569,532
0.569,533
0.569,533
0.569,532
0.571,532
0.571,531
0.571,529
0.571,527
0.572,524
0.572,521
0.574,517
0.574,514
0.574,510
0.574,506
0.575,502
0.575,498
0.577,495
0.577,491
0.577,488
0.577,486
0.577,484
0.577,482
0.577,479
0.58,478
0.58,476
0.58,475
0.58,474
0.58,475
0.58,475
0.582,476
0.582,478
0.582,479
0.582,481
0.582,483
0.582,485
0.583,488
0.585,492
0.585,495
0.585,499
0.585,503
0.585,507
0.585,511
0.588,515
0.588,518
0.588,521
0.588,523
0.588,526
0.588,527
0.59,528
0.59,528
0.59,528
0.59,527
0.59,527
0.59,525
0.591,523
0.593,521
0.593,518
0.593,516
0.593,513
0.593,510
0.594,506
0.596,503
0.596,500
0.596,497
0.596,494
0.596,491
0.596,489
0.596,486
0.599,484
0.599,483
0.599,482
0.599,481
0.599,480
0.599,479
0.601,479
0.601,479
0.601,480
0.601,481
0.601,482
0.601,484
0.604,487
0.604,489
0.605,492
0.605,496
0.605,500
0.605,505
0.605,510
0.606,514
0.607,518
0.607,522
0.607,525
0.607,529
0.607,532
0.609,534
0.609,536
0.609,537
0.609,538
0.609,538
0.609,537
0.609,536
0.611,535
0.612,532
0.612,530
0.612,527
0.612,524
0.612,520
0.614,517
0.614,514
0.614,511
0.614,507
0.614,504
0.614,501
0.618,498
0.618,495
0.618,493
0.618,491
0.618,489
0.618,488
0.618,487
0.62,487
0.62,486
0.62,486
0.62,486
0.62,487
0.62,488
0.623,489
0.623,490
0.623,492
0.623,495
0.623,498
0.623,501
0.623,505
0.626,508
0.626,513
0.626,517
0.626,522
0.626,526
0.626,529
0.629,531
0.629,534
0.629,535
0.629,536
0.629,536
0.629,536
0.631,536
0.631,535
0.631,534
0.631,533
0.631,530
0.631,527
0.631,523
0.634,519
0.634,516
0.634,513
0.634,510
0.634,507
0.634,504
0.637,501
0.637,498
0.637,495
0.638,492
0.638,489
0.638,487
0.638,485
0.639,483
0.639,482
0.639,481
0.639,481
0.639,481
0.639,480
0.642,480
0.642,481
0.642,482
0.642,483
0.642,485
0.642,487
0.645,490
0.645,492
0.645,495
0.645,499
0.645,503
0.645,508
0.645,512
0.648,517
0.648,520
0.648,524
0.648,527
0.648,531
0.648,533
0.65,536
0.65,538
0.65,539
0.65,540
0.65,538
0.65,537
0.65,535
0.652,533
0.652,530
0.653,527
0.653,524
0.653,521
0.653,518
0.656,515
0.656,512
0.656,509
0.656,506
0.656,503
0.656,501
0.658,499
0.658,496
0.658,494
0.658,492
0.658,490
0.658,489
0.658,488
0.661,487
0.661,488
0.661,488
0.661,489
0.661,490
0.661,492
0.664,494
0.664,497
0.664,500
0.664,504
0.664,507
0.664,511
0.664,515
0.667,519
0.667,523
0.667,527
0.667,531
0.667,534
0.667,537
0.669,540
0.669,541
0.67,542
0.67,543
0.67,543
0.67,543
0.672,542
0.672,540
0.672,537
0.672,534
0.672,531
0.672,528
0.672,525
0.675,522
0.675,520
0.675,517
0.675,513
0.675,509
0.675,506
0.677,503
0.677,499
0.677,496
0.677,494
0.678,491
0.678,489
0.678,488
0.68,487
0.68,485
0.68,485
0.68,486
0.68,486
0.68,486
0.683,487
0.683,488
0.683,489
0.683,492
0.683,493
0.683,496
0.685,500
0.686,503
0.686,506
0.686,509
0.686,513
0.686,516
0.687,520
0.688,524
0.688,527
0.688,530
0.688,532
0.688,533
0.689,534
0.691,534
0.691,534
0.691,533
0.691,531
0.691,529
0.691,526
0.691,523
0.694,520
0.694,517
0.694,515
0.694,511
0.694,508
0.694,505
0.697,502
0.697,498
0.697,494
0.697,491
0.697,489
0.697,488
0.699,487
0.7,487
0.7,486
0.7,486
0.7,486
0.7,485
0.7,485
0.702,486
0.702,486
0.702,487
0.702,488
0.703,489
0.703,491
0.704,493
0.705,496
0.705,500
0.705,504
0.705,508
0.705,511
0.705,515
0.707,520
0.708,524
0.708,527
0.708,531
0.708,534
0.708,536
0.71,537
0.71,538
0.71,538
0.71,537
0.71,537
0.71,537
0.713,538
0.713,537
0.713,535
0.713,534
0.713,532
0.713,530
0.713,528
0.715,524
0.716,520
0.716,517
0.716,514
0.716,512
0.716,509
0.717,508
0.717,506
0.717,505
0.717,504
0.718,505
0.718,506
0.718,506
0.72,505
0.72,504
0.721,502
0.721,502
0.721,502
0.721,502
0.723,502
0.723,502
0.723,503
0.723,503
0.723,504
0.723,505
0.725,507
0.726,509
0.726,510
0.726,512
0.726,514
0.726,516
0.726,518
0.728,520
0.728,521
0.729,523
0.729,523
0.729,523
0.729,523
0.731,522
0.731,520
0.731,518
0.731,515
0.731,511
0.731,508
0.732,505
0.734,502
0.734,498
0.734,495
0.734,492
0.734,490
0.734,487
0.736,485
0.737,484
0.737,481
0.737,479
0.737,478
0.737,476
0.739,475
0.739,473
0.739,472
0.739,472
0.739,473
0.74,475
0.74,477
0.742,478
0.742,480
0.742,482
0.742,483
0.742,485
0.742,488
0.744,492
0.745,497
0.745,502
0.745,507
0.745,511
0.745,516
0.745,520
0.747,523
0.747,526
0.748,528
0.748,528
0.748,527
0.748,527
0.75,526
0.75,526
0.75,526
0.75,526
0.75,527
0.751,528
0.753,527
0.753,524
0.753,521
0.753,518
0.753,515
0.753,512
0.753,509
0.755,507
0.756,505
0.756,502
0.756,499
0.756,497
0.756,496
0.758,495
0.758,495
0.758,494
0.758,494
0.758,494
0.759,495
0.759,496
0.761,497
0.761,499
0.761,501
0.761,504
0.761,507
0.762,510
0.764,515
0.764,520
0.764,527
0.764,533
0.764,539
0.764,545
0.766,552
0.766,557
0.767,562
0.767,567
0.767,572
0.767,576
0.767,579
0.769,581
0.769,583
0.769,585
0.769,586
0.769,586
0.77,586
0.772,586
0.772,586
0.772,585
0.772,584
0.772,581
0.772,578
0.772,574
0.774,570
0.775,567
0.775,565
0.775,564
0.775,561
0.775,558
0.777,555
0.777,553
0.777,551
0.777,550
0.778,549
0.778,548
0.78,547
0.78,546
0.78,545
0.78,545
0.781,544
0.781,546
0.781,548
0.783,552
0.783,558
0.783,564
0.783,571
0.783,577
0.783,582
0.785,588
0.786,595
0.786,601
0.786,606
0.786,608
0.786,609
0.786,610
0.788,608
0.788,604
0.789,600
0.789,600
0.789,601
0.789,601
0.791,602
0.791,605
0.791,609
0.791,612
0.792,616
0.792,617
0.794,618
0.794,618
0.794,617
0.794,616
0.794,615
0.794,613
0.794,611
0.796,609
0.797,606
0.797,602
0.797,598
0.797,593
0.797,586
0.799,579
0.799,574
0.799,569
0.8,565
0.8,562
0.8,560
0.8,559
0.802,559
0.802,561
0.802,562
0.802,564
0.802,565
0.802,566
0.805,566
0.805,565
0.805,563
0.805,562
0.805,561
0.805,561
0.807,565
0.807,572
0.807,581
0.808,591
0.808,600
0.808,608
0.808,614
0.81,619
0.81,621
0.81,621
0.81,617
0.81,610
0.811,601
0.813,591
0.813,581
0.813,572
0.813,564
0.813,556
0.813,548
0.813,542
0.815,537
0.816,532
0.816,529
0.816,527
0.816,526
0.816,526
0.818,525
0.818,523
0.818,521
0.818,520
0.819,522
0.819,525
0.821,528
0.821,530
0.821,531
0.821,530
0.821,531
0.821,531
0.821,531
0.824,532
0.824,533
0.824,535
0.824,537
0.824,540
0.824,543
0.826,545
0.826,547
0.827,548
0.827,546
0.827,544
0.827,542
0.827,543
0.829,544
0.829,546
0.829,548
0.83,547
0.83,545
0.83,542
0.832,538
0.832,535
0.832,532
0.832,529
0.832,527
0.832,523
0.834,521
0.835,519
0.835,517
0.835,516
0.835,515
0.835,514
0.835,513
0.837,510
0.837,505
0.837,499
0.837,493
0.837,487
0.837,483
0.84,480
0.84,481
0.84,486
0.84,492
0.84,498
0.841,502
0.841,506
0.842,511
0.843,516
0.843,520
0.843,524
0.843,529
0.843,534
0.845,538
0.845,542
0.845,545
0.846,546
0.846,545
0.846,545
0.848,546
0.848,546
0.848,546
0.848,545
0.848,543
0.848,542
0.848,539
0.851,536
0.851,533
0.851,531
0.851,527
0.851,523
0.851,520
0.854,516
0.854,513
0.854,509
0.854,503
0.854,496
0.854,488
0.854,481
0.857,473
0.857,465
0.857,459
0.857,456
0.857,456
0.857,458
0.859,462
0.859,465
0.859,469
0.859,471
0.86,473
0.86,473
0.861,473
0.862,479
0.862,489
0.862,502
0.862,516
0.862,528
0.862,539
0.864,549
0.864,557
0.865,562
0.865,565
0.865,569
0.865,576
0.867,582
0.867,584
0.867,581
0.867,576
0.867,572
0.867,569
0.867,565
0.87,560
0.87,553
0.87,547
0.87,540
0.87,535
0.87,529
0.872,523
0.872,514
0.873,506
0.873,500
0.873,498
0.873,498
0.875,499
0.875,500
0.875,502
0.875,504
0.875,504
0.876,502
0.876,498
0.878,496
0.878,496
0.878,495
0.878,495
0.878,496
0.878,497
0.881,497
0.881,496
0.881,494
0.881,491
0.881,488
0.881,486
0.881,485
0.883,487
0.883,489
0.884,491
0.884,493
0.884,498
0.884,502
0.886,507
0.886,511
0.886,515
0.886,518
0.886,522
0.886,526
0.889,531
0.889,535
0.889,539
0.889,543
0.889,545
0.89,548
0.89,551
0.892,553
0.892,552
0.892,549
0.892,544
0.892,540
0.892,535
0.894,531
0.894,526
0.894,524
0.895,522
0.895,521
0.895,519
0.895,517
0.897,515
0.897,515
0.897,518
0.897,521
0.897,523
0.897,525
0.9,525
0.9,524
0.9,520
0.9,511
0.9,502
0.9,494
0.902,488
0.902,482
0.903,479
0.903,480
0.903,484
0.903,488
0.903,489
0.905,488
0.905,487
0.905,487
0.905,487
0.905,490
0.906,494
0.908,497
0.908,497
0.908,494
0.908,489
0.908,483
0.908,475
0.908,468
0.911,464
0.911,461
0.911,461
0.911,462
0.911,462
0.911,459
0.913,455
0.913,452
0.914,451
0.914,453
0.914,456
0.914,460
0.916,464
0.916,469
0.916,473
0.916,475
0.916,476
0.916,473
0.916,472
0.919,476
0.919,483
0.919,491
0.919,496
0.919,500
0.919,505
0.921,511
0.921,516
0.922,518
0.922,515
0.922,509
0.922,502
0.922,498
0.924,496
0.924,494
0.924,492
0.924,493
0.925,494
0.925,494
0.927,491
0.927,489
0.927,487
0.927,487
0.927,491
0.927,496
0.929,499
0.93,502
0.93,503
0.93,504
0.93,505
0.93,504
0.93,503
0.932,503
0.932,504
0.932,505
0.933,509
0.933,514
0.933,519
0.935,523
0.935,523
0.935,516
0.935,509
0.935,505
0.935,507
0.936,509
0.938,511
0.938,512
0.938,513
0.938,510
0.938,502
0.938,491
0.94,482
0.94,476
0.941,474
0.941,474
0.941,475
0.941,473
0.943,472
0.943,470
0.943,471
0.943,472
0.943,472
0.944,471
0.944,468
0.946,466
0.946,466
0.946,466
0.946,466
0.946,467
0.946,469
0.949,470
0.949,472
0.949,472
0.949,470
0.949,467
0.949,464
0.949,461
0.951,456
0.951,451
0.952,446
0.952,439
0.952,433
0.952,429
0.954,432
0.954,439
0.954,444
0.954,447
0.954,449
0.954,450
0.957,449
0.957,443
0.957,439
0.957,437
0.957,437
0.958,439
0.958,441
0.959,441
0.96,441
0.96,445
0.96,455
0.96,467
0.96,473
0.962,475
0.962,475
0.962,473
0.963,478
0.963,492
0.963,512
0.963,531
0.965,546
0.965,559
0.965,571
0.965,580
0.965,584
0.965,585
0.968,582
0.968,577
0.968,570
0.968,561
0.968,551
0.968,539
0.97,531
0.97,526
0.971,524
0.971,523
0.971,523
0.971,525
0.971,529
0.973,537
0.973,545
0.973,551
0.973,550
0.973,543
0.974,530
0.976,516
0.976,503
0.976,494
0.976,486
0.976,481
0.977,477
0.977,477
0.979,477
0.979,476
0.979,474
0.979,471
0.979,464
0.979,455
0.981,446
0.981,437
0.981,432
0.982,432
0.982,438
0.982,449
0.984,458
0.984,465
0.984,471
0.984,475
0.984,479
0.984,486
0.984,491
0.987,492
0.987,490
0.987,488
0.987,486
0.987,483
0.987,478
0.989,470
0.989,461
0.99,455
0.99,454
0.99,456
0.99,459
0.99,461
0.992,461
0.992,460
0.992,456
0.992,453
0.993,456
0.993,460
0.995,462
0.995,459
0.995,454
0.995,444
0.995,430
0.996,418
0.997,411
0.998,406
0.998,403
0.998,400
0.998,399
0.998,401
0.998,405
1.0,411
1.0,417
1.0,423
1.001,431
1.001,441
1.001,453
1.003,467
1.003,483
1.003,496
1.003,509
1.003,528
1.004,548
1.004,564
1.006,577
1.006,588
1.006,595
1.006,601
1.006,606
1.006,610
1.008,615
1.009,622
1.009,626
1.009,628
1.009,627
1.009,626
1.011,624
1.011,619
1.011,612
1.011,602
1.012,592
1.012,578
1.012,562
1.014,544
1.014,524
1.014,502
1.014,482
1.014,468
1.014,464
1.017,466
1.017,472
1.017,479
1.017,486
1.017,496
1.017,509
1.017,520
1.02,524
1.02,524
1.02,520
1.02,512
1.02,507
1.02,507
1.022,510
1.022,509
1.022,503
1.023,495
1.023,486
1.023,476
1.025,469
1.025,466
1.025,466
1.025,470
1.025,474
1.025,478
1.025,481
1.027,487
1.027,499
1.028,510
1.028,520
1.028,527
1.028,533
1.03,537
1.031,538
1.031,537
1.031,534
1.031,530
1.031,529
1.031,529
1.033,529
1.033,526
1.033,521
1.033,514
1.033,506
1.033,497
1.036,487
1.036,479
1.036,474
1.036,471
1.036,468
1.036,467
1.038,468
1.039,469
1.039,472
1.039,477
1.039,483
1.039,488
1.039,489
1.041,491
1.041,492
1.042,490
1.042,487
1.042,485
1.042,484
1.044,487
1.044,493
1.044,501
1.044,514
1.044,527
1.044,538
1.044,550
1.047,558
1.047,567
1.047,575
1.047,586
1.047,594
1.047,601
1.049,609
1.049,616
1.05,622
1.05,627
1.05,630
1.05,629
1.052,622
1.052,610
1.052,599
1.052,588
1.052,577
1.053,569
1.053,562
1.055,555
1.055,548
1.055,542
1.055,539
1.055,534
1.055,524
1.057,512
1.058,501
1.058,493
1.058,491
1.058,491
1.058,490
1.058,487
1.06,480
1.06,474
1.06,469
1.06,465
1.061,462
1.061,462
1.063,464
1.063,470
1.063,474
1.063,476
1.063,473
1.063,467
1.066,462
1.066,461
1.066,463
1.066,468
1.066,479
1.066,499
1.066,522
1.068,538
1.068,549
1.069,559
1.069,573
1.069,587
1.069,600
1.071,608
1.071,612
1.071,611
1.071,608
1.071,603
1.071,595
1.071,586
1.074,576
1.074,564
1.074,551
1.074,540
1.074,528
1.074,517
1.076,503
1.077,490
1.077,478
1.077,463
1.077,448
1.077,434
1.079,422
1.079,408
1.079,393
1.08,380
1.08,373
1.08,372
1.08,373
1.082,380
1.082,394
1.082,411
1.082,429
1.082,449
1.082,467
1.085,478
1.085,487
1.085,500
1.085,515
1.085,529
1.085,538
1.085,546
1.087,553
1.087,559
1.088,565
1.088,567
1.088,569
1.088,572
1.09,575
1.09,577
1.09,578
1.09,578
1.09,573
1.091,566
1.093,556
1.093,548
1.093,546
1.093,548
1.093,549
1.093,545
1.093,539
1.096,535
1.096,528
1.096,517
1.096,505
1.096,491
1.096,476
1.098,465
1.098,460
1.098,456
1.098,451
1.099,447
1.099,442
1.099,436
1.101,431
1.101,426
1.101,423
1.101,425
1.101,432
1.102,444
1.104,460
1.104,475
1.104,487
1.104,496
1.104,504
1.104,510
1.106,518
1.106,526
1.106,537
1.107,549
1.107,563
1.107,578
1.107,590
1.109,595
1.109,594
1.109,588
1.109,583
1.109,580
1.11,578
1.112,576
1.112,574
1.112,566
1.112,556
1.112,549
1.112,549
1.112,557
1.115,565
1.115,572
1.115,579
1.115,583
1.115,584
1.115,579
1.117,567
1.117,549
1.118,529
1.118,511
1.118,496
1.118,480
1.12,466
1.12,457
1.12,453
1.12,449
1.12,450
1.12,455
1.12,463
1.123,477
1.123,492
1.123,505
1.123,518
1.123,528
1.123,533
1.126,532
1.126,526
1.126,513
1.126,497
1.126,481
1.126,470
1.127,464
1.128,461
1.128,460
1.128,462
1.128,468
1.129,477
1.129,486
1.131,497
1.131,509
1.131,521
1.131,532
1.131,544
1.131,549
1.134,546
1.134,536
1.134,526
1.134,520
1.134,516
1.134,513
1.134,511
1.136,512
1.136,517
1.136,527
1.137,539
1.137,552
1.137,563
1.139,572
1.139,579
1.139,581
1.139,577
1.139,573
1.139,571
1.139,571
1.142,570
1.142,565
1.142,556
1.142,546
1.142,540
1.142,536
1.145,536
1.145,539
1.145,544
1.145,549
1.145,552
1.145,555
1.147,563
1.147,574
1.147,585
1.147,593
1.147,597
1.148,598
1.148,596
1.15,592
1.15,589
1.15,585
1.15,577
1.15,571
1.15,565
1.153,552
1.153,537
1.153,520
1.153,507
1.153,498
1.153,494
1.154,495
1.155,497
1.156,502
1.156,506
1.156,510
1.156,516
1.156,522
1.158,532
1.158,542
1.158,552
1.158,559
1.158,558
1.159,551
1.161,544
1.161,538
1.161,534
1.161,529
1.161,524
1.161,521
1.161,520
1.164,525
1.164,534
1.164,549
1.164,564
1.164,575
1.164,586
1.166,599
1.166,614
1.167,630
1.167,645
1.167,657
1.167,663
1.167,662
1.169,655
1.169,641
1.169,622
1.169,603
1.169,585
1.169,567
1.172,547
1.173,531
1.173,520
1.173,512
1.173,505
1.173,500
1.175,499
1.175,500
1.175,507
1.175,514
1.176,524
1.176,532
1.176,540
1.178,547
1.178,552
1.178,551
1.178,543
1.178,529
1.178,514
1.181,499
1.181,488
1.181,482
1.181,481
1.181,485
1.181,490
1.181,495
1.183,499
1.183,502
1.184,505
1.184,510
1.184,512
1.184,511
1.186,509
1.186,504
1.186,498
1.186,491
1.186,487
1.187,487
1.189,488
1.189,487
1.189,488
1.189,496
1.189,514
1.189,536
1.19,554
1.191,567
1.192,575
1.192,580
1.192,582
1.192,582
1.192,582
1.194,585
1.194,592
1.194,600
1.194,607
1.195,614
1.195,620
1.195,627
1.197,630
1.197,628
1.197,623
1.197,615
1.197,605
1.197,593
1.2,582
1.2,573
1.2,564
1.2,554
1.2,544
1.2,535
1.202,526
1.202,512
1.203,503
1.203,496
1.203,489
1.203,482
1.203,480
1.205,483
1.205,491
1.205,502
1.205,512
1.205,520
1.206,521
1.208,518
1.208,510
1.208,502
1.208,494
1.208,490
1.208,489
1.208,490
1.211,491
1.211,495
1.211,502
1.211,507
1.211,505
1.211,501
1.213,502
1.213,508
1.213,517
1.214,526
1.214,528
1.214,523
1.216,518
1.216,519
1.216,521
1.216,520
1.216,521
1.216,528
1.216,536
1.219,544
1.219,551
1.219,557
1.219,561
1.219,565
1.219,571
1.221,578
1.222,584
1.222,586
1.222,589
1.222,595
1.222,601
1.222,604
1.224,605
1.224,605
1.224,599
1.225,589
1.225,576
1.225,558
1.227,543
1.227,534
1.227,528
1.227,526
1.227,528
1.227,534
1.229,541
1.23,548
1.23,557
1.23,570
1.23,583
1.23,596
1.23,608
1.232,622
1.233,636
1.233,648
1.233,658
1.233,662
1.233,658
1.235,646
1.235,630
1.235,610
1.235,586
1.236,561
1.236,538
1.236,518
1.238,500
1.238,485
1.238,475
1.238,470
1.239,468
1.239,469
1.241,472
1.241,474
1.241,477
1.241,484
1.241,488
1.241,490
1.243,488
1.243,486
1.244,489
1.244,494
1.244,498
1.244,500
1.244,499
1.246,493
1.246,488
1.246,486
1.246,489
1.247,498
1.247,511
1.249,525
1.249,535
1.249,541
1.249,541
1.249,541
1.249,543
1.25,549
1.252,558
1.252,569
1.252,578
1.252,583
1.252,593
1.252,606
1.254,622
1.254,640
1.255,658
1.255,671
1.255,674
1.255,663
1.257,640
1.257,612
1.257,584
1.257,560
1.258,542
1.258,527
1.258,514
1.26,505
1.26,499
1.26,490
1.26,482
1.26,478
1.26,479
1.262,479
1.262,482
1.262,491
1.262,502
1.263,514
1.263,525
1.263,534
1.265,543
1.265,548
1.265,550
1.265,549
1.265,546
1.265,542
1.268,539
1.268,535
1.268,534
1.268,532
1.268,529
1.268,523
1.27,516
1.27,512
1.27,517
1.27,527
1.271,539
1.271,550
1.271,557
1.273,560
1.273,558
1.274,554
1.274,549
1.274,547
1.274,548
1.276,549
1.276,551
1.276,554
1.276,555
1.276,553
1.276,547
1.276,544
1.279,545
1.279,543
1.279,538
1.279,535
1.279,534
1.279,535
1.281,539
1.281,547
1.282,558
1.282,572
1.282,584
1.282,588
1.284,582
1.284,572
1.284,562
1.284,552
1.284,541
1.284,528
1.284,515
1.287,508
1.287,509
1.287,514
1.287,527
1.287,545
1.287,569
1.29,595
1.29,621
1.29,646
1.29,667
1.29,682
1.29,692
1.29,698
1.293,703
1.293,702
1.293,697
1.293,686
1.293,668
1.293,644
1.295,620
1.295,596
1.295,575
1.295,556
1.295,540
1.296,526
1.298,511
1.298,495
1.298,483
1.298,475
1.298,471
1.298,469
1.298,470
1.301,473
1.301,482
1.301,491
1.301,499
1.301,505
1.301,517
1.303,534
1.303,551
1.303,566
1.303,577
1.303,587
1.303,596
1.303,602
1.306,603
1.306,601
1.306,599
1.306,597
1.306,594
1.306,591
1.309,591
1.309,590
1.309,586
1.309,578
1.309,571
1.309,566
1.311,563
1.311,565
1.311,568
1.311,567
1.312,565
1.312,564
1.312,566
1.314,576
1.314,591
1.314,604
1.314,615
1.314,624
1.314,630
1.316,634
1.316,631
1.316,620
1.317,602
1.317,578
1.317,556
1.317,536
1.319,519
1.319,503
1.319,490
1.319,482
1.319,480
1.32,479
1.322,480
1.322,483
1.322,488
1.322,493
1.322,494
1.322,492
1.324,491
1.325,497
1.325,506
1.325,516
1.325,525
1.325,533
1.325,538
1.327,544
1.327,545
1.327,543
1.327,541
1.327,542
1.328,546
1.331,553
1.331,562
1.331,570
1.331,577
1.331,584
1.331,593
1.331,605
1.333,617
1.333,627
1.333,633
1.333,634
1.333,631
1.333,625
1.336,614
1.336,600
1.336,586
1.336,571
1.336,556
1.336,542
1.338,533
1.338,526
1.338,527
1.338,528
1.338,523
1.338,516
1.338,511
1.341,505
1.341,497
1.341,497
1.341,500
1.341,501
1.341,499
1.344,497
1.344,497
1.344,496
1.344,494
1.344,494
1.344,497
1.344,506
1.347,519
1.347,533
1.347,547
1.347,559
1.347,568
1.347,573
1.35,578
1.35,582
1.35,585
1.35,588
1.35,590
1.35,590
1.352,590
1.352,592
1.352,597
1.352,601
1.352,605
1.352,604
1.352,600
1.355,595
1.355,592
1.355,596
1.355,607
1.355,622
1.355,639
1.358,656
1.358,669
1.358,674
1.358,676
1.358,673
1.358,664
1.358,649
1.361,625
1.361,598
1.361,572
1.361,549
1.361,528
1.361,509
1.363,492
1.363,482
1.363,475
1.363,472
1.363,475
1.363,483
1.366,493
1.366,503
1.366,516
1.366,535
1.366,554
1.366,568
1.366,575
1.369,577
1.369,579
1.369,581
1.369,581
1.369,580
1.369,580
1.371,579
1.371,576
1.372,573
1.372,569
1.372,563
1.372,558
1.372,554
1.374,553
1.374,556
1.374,562
1.374,571
1.374,582
1.374,594
1.377,607
1.377,617
1.377,629
1.377,635
1.377,636
1.377,630
1.38,618
1.38,601
1.38,583
1.38,563
1.38,543
1.38,524
1.38,511
1.382,502
1.382,499
1.382,499
1.382,500
1.382,503
1.383,507
1.385,511
1.385,520
1.385,536
1.385,556
1.385,572
1.385,584
1.385,595
1.388,606
1.388,613
1.388,614
1.388,615
1.389,615
1.389,613
1.391,612
1.391,612
1.391,610
1.391,603
1.391,594
1.391,586
1.393,575
1.393,562
1.393,549
1.393,536
1.393,529
1.393,527
1.394,527
1.396,527
1.396,527
1.396,524
1.396,520
1.396,516
1.396,516
1.399,515
1.399,514
1.399,514
1.399,516
1.399,519
1.399,521
1.4,522
1.401,521
1.401,522
1.401,522
1.401,518
1.401,511
1.401,503
1.404,497
1.404,494
1.404,496
1.404,502
1.405,512
1.405,529
1.407,550
1.407,571
1.407,593
1.407,617
1.407,631
1.407,630
1.407,619
1.41,607
1.41,600
1.41,596
1.41,596
1.41,597
1.41,595
1.412,590
1.412,586
1.412,586
1.412,590
1.412,595
1.412,601
1.413,604
1.415,606
1.415,608
1.415,607
1.415,604
1.415,597
1.416,584
1.418,571
1.418,558
1.418,546
1.418,534
1.418,526
1.418,517
1.42,508
1.42,499
1.42,493
1.42,488
1.42,483
1.421,478
1.421,473
1.423,469
1.423,471
1.423,479
1.423,494
1.423,513
1.423,532
1.426,549
1.426,565
1.426,579
1.426,591
1.426,597
1.426,600
1.426,601
1.428,596
1.428,589
1.429,584
1.429,583
1.429,580
1.429,574
1.431,563
1.431,552
1.431,544
1.431,543
1.431,548
1.431,554
1.434,558
1.434,561
1.434,562
1.434,559
1.434,555
1.434,550
1.434,543
1.437,535
1.437,527
1.437,520
1.437,516
1.438,512
1.438,507
1.439,504
1.439,505
1.439,508
1.439,510
1.439,511
1.439,510
1.439,508
1.441,510
1.442,518
1.442,532
1.442,548
1.442,560
1.442,571
1.444,589
1.444,611
1.444,633
1.444,654
1.444,679
1.445,703
1.447,722
1.447,735
1.447,746
1.447,751
1.447,747
1.447,733
1.447,713
1.449,693
1.45,670
1.45,646
1.45,626
1.45,612
1.45,602
1.452,593
1.452,581
1.452,569
1.452,563
1.452,563
1.452,564
1.453,563
1.455,567
1.455,579
1.455,591
1.455,603
1.455,616
1.455,626
1.458,628
1.458,620
1.458,610
1.458,604
1.458,596
1.458,583
1.461,570
1.461,554
1.461,539
1.461,527
1.461,518
1.461,517
1.461,524
1.464,535
1.464,543
1.464,546
1.464,549
1.464,558
1.464,567
1.466,574
1.467,579
1.467,586
1.467,594
1.467,597
1.467,596
1.467,591
1.469,584
1.469,573
1.469,562
1.469,553
1.469,549
1.469,548
1.472,549
1.472,552
1.472,555
1.472,557
1.472,562
1.472,566
1.474,567
1.475,568
1.475,568
1.475,569
1.475,564
1.475,555
1.475,550
1.477,551
1.477,554
1.477,554
1.477,554
1.477,555
1.477,556
1.479,560
1.48,564
1.48,568
1.48,572
1.48,580
1.48,591
1.48,605
1.483,617
1.483,625
1.483,631
1.483,636
1.483,644
1.483,654
1.485,658
1.485,657
1.485,656
1.485,657
1.485,657
1.485,662
1.488,672
1.489,682
1.489,689
1.489,691
1.489,692
1.489,688
1.489,680
1.491,668
1.491,657
1.491,643
1.491,629
1.491,619
1.491,608
1.494,596
1.494,585
1.494,569
1.494,548
1.494,527
1.494,508
1.494,490
1.497,474
1.497,460
1.497,450
1.497,444
1.497,443
1.497,446
1.499,450
1.499,456
1.499,466
1.499,480
1.499,495
1.499,510
1.502,520
1.502,523
1.502,521
1.502,516
1.502,509
1.503,498
1.503,487
1.505,476
1.505,472
1.506,474
1.506,477
1.506,478
1.506,481
1.508,485
1.508,490
1.508,496
1.508,508
1.508,526
1.508,548
1.509,574
1.51,596
1.51,609
1.51,617
1.51,628
1.51,636
1.51,644
1.512,654
1.513,663
1.513,667
1.513,665
1.513,659
1.513,647
1.516,632
1.516,615
1.516,600
1.516,588
1.516,577
1.516,568
1.517,562
1.518,554
1.518,544
1.518,535
1.518,532
1.518,532
1.518,532
1.521,532
1.521,533
1.522,538
1.522,547
1.522,557
1.522,570
1.522,586
1.524,602
1.524,621
1.524,639
1.524,657
1.524,673
1.524,688
1.527,701
1.527,712
1.527,714
1.527,707
1.527,698
1.527,690
1.529,681
1.529,665
1.529,642
1.529,618
1.529,596
1.529,581
1.529,571
1.532,562
1.532,557
1.532,553
1.532,548
1.532,544
1.532,544
1.535,547
1.535,553
1.535,563
1.535,576
1.535,589
1.535,603
1.535,613
1.538,621
1.538,626
1.539,626
1.539,621
1.539,614
1.539,602
1.54,589
1.54,577
1.54,565
1.54,553
1.54,541
1.54,533
1.542,529
1.543,522
1.543,518
1.543,518
1.543,525
1.544,539
1.544,553
1.545,559
1.545,551
1.546,532
1.546,512
1.546,494
1.546,483
1.548,479
1.548,480
1.548,487
1.548,502
1.548,518
1.548,531
1.548,543
1.551,553
1.551,560
1.551,561
1.551,559
1.551,558
1.551,558
1.553,561
1.554,564
1.554,567
1.554,576
1.554,588
1.554,597
1.556,600
1.556,596
1.556,585
1.556,578
1.556,579
1.556,591
1.557,603
1.559,610
1.559,613
1.559,612
1.559,607
1.559,602
1.559,601
1.562,602
1.562,601
1.562,598
1.562,592
1.562,588
1.562,586
1.562,586
1.565,590
1.565,597
1.565,605
1.565,608
1.565,608
1.565,607
1.567,607
1.567,607
1.567,604
1.567,600
1.567,599
1.567,602
1.57,605
1.57,604
1.57,603
1.57,604
1.57,605
1.57,610
1.57,616
1.573,621
1.573,623
1.573,623
1.573,621
1.573,615
1.573,606
1.575,594
1.575,583
1.576,573
1.576,565
1.576,558
1.576,550
1.576,541
1.578,531
1.578,523
1.578,519
1.578,521
1.578,527
1.578,534
1.581,545
1.581,557
1.581,566
1.581,573
1.581,576
1.581,577
1.583,583
1.583,595
1.584,610
1.584,616
1.584,613
1.584,608
1.584,600
1.586,591
1.586,586
1.586,585
1.586,585
1.586,587
1.586,588
1.588,589
1.588,592
1.589,598
1.589,601
1.589,601
1.589,601
1.589,601
1.591,600
1.591,596
1.591,591
1.591,581
1.592,569
1.592,561
1.595,557
1.595,554
1.595,547
1.595,535
1.595,518
1.595,505
1.597,500
1.597,495
1.597,487
1.597,482
1.597,482
1.597,486
1.598,491
1.6,495
1.6,502
1.6,509
1.6,511
1.6,511
1.6,512
1.603,514
1.603,514
1.603,510
1.603,505
1.603,506
1.603,510
1.603,516
1.605,524
1.605,538
1.605,556
1.605,576
1.606,591
1.606,602
1.608,611
1.608,623
1.608,635
1.608,648
1.608,659
1.608,666
1.611,670
1.611,671
1.611,668
1.611,660
1.611,652
1.611,643
1.611,631
1.614,620
1.614,612
1.614,600
1.614,588
1.614,578
1.614,570
1.616,568
1.616,570
1.616,573
1.616,573
1.616,572
1.616,568
1.616,563
1.619,560
1.619,560
1.619,565
1.619,575
1.619,584
1.619,591
1.621,595
1.622,593
1.622,592
1.622,599
1.622,607
1.622,613
1.625,616
1.625,614
1.625,609
1.625,602
1.625,590
1.625,576
1.625,563
1.627,551
1.627,543
1.627,541
1.627,544
1.627,550
1.627,559
1.629,565
1.63,568
1.63,567
1.63,560
1.63,550
1.63,541
1.63,537
1.632,535
1.632,535
1.632,537
1.633,541
1.633,547
1.633,553
1.635,556
1.635,556
1.635,561
1.635,566
1.635,574
1.635,585
1.638,595
1.638,602
1.638,603
1.638,599
1.638,592
1.638,587
1.639,582
1.64,575
1.641,570
1.641,563
1.641,556
1.641,550
1.641,545
1.643,539
1.643,537
1.643,538
1.643,541
1.643,544
1.643,552
1.643,565
1.646,580
1.646,591
1.646,599
1.646,603
1.646,605
1.646,606
1.649,607
1.649,611
1.649,612
1.649,610
1.649,610
1.649,612
1.652,611
1.652,603
1.652,589
1.652,573
1.652,557
1.652,542
1.652,526
1.655,511
1.655,502
1.655,505
1.655,513
1.655,524
1.655,532
1.657,537
1.657,536
1.657,531
1.657,525
1.657,520
1.657,516
1.657,523
1.66,539
1.66,556
1.66,573
1.66,590
1.66,610
1.66,630
1.663,647
1.663,659
1.663,668
1.663,670
1.663,662
1.663,647
1.665,631
1.665,616
1.665,601
1.665,590
1.665,590
1.665,600
1.665,615
1.667,633
1.667,649
1.667,659
1.668,665
1.668,673
1.668,682
1.671,683
1.671,679
1.671,670
1.671,659
1.671,646
1.672,632
1.672,619
1.674,609
1.674,602
1.674,594
1.674,587
1.674,580
1.675,574
1.676,568
1.676,561
1.676,553
1.676,549
1.676,549
1.676,551
1.679,554
1.679,556
1.679,559
1.679,567
1.679,578
1.679,588
1.68,592
1.682,592
1.682,592
1.682,591
1.682,590
1.682,587
1.682,583
1.684,580
1.684,580
1.684,578
1.684,573
1.685,569
1.685,559
1.685,547
1.687,535
1.687,531
1.687,536
1.687,546
1.687,558
1.688,570
1.69,582
1.69,589
1.69,589
1.69,586
1.69,583
1.69,579
1.692,574
1.693,567
1.693,561
1.693,554
1.693,545
1.693,535
1.693,531
1.695,533
1.695,535
1.695,537
1.695,541
1.696,542
1.696,544
1.698,549
1.698,557
1.698,568
1.699,581
1.699,595
1.699,607
1.699,619
1.701,628
1.701,631
1.701,625
1.701,610
1.701,594
1.701,582
1.703,570
1.703,558
1.704,548
1.704,540
1.704,532
1.704,523
1.706,514
1.706,504
1.706,497
1.706,496
1.706,497
1.706,503
1.706,512
1.709,523
1.709,536
1.709,548
1.709,557
1.709,562
1.709,564
1.712,564
1.712,562
1.712,560
1.712,556
1.712,553
1.712,549
1.712,549
1.714,547
1.714,545
1.714,546
1.714,547
1.715,544
1.715,540
1.717,537
1.717,532
1.717,524
1.717,517
1.717,507
1.717,499
1.72,492
1.72,487
1.72,486
1.72,486
1.72,485
1.72,489
1.72,495
1.722,504
1.722,513
1.723,523
1.723,535
1.723,545
1.723,552
1.725,556
1.725,558
1.725,557
1.725,555
1.725,553
1.725,554
1.725,556
1.728,559
1.728,559
1.728,557
1.728,556
1.728,556
1.728,558
1.731,557
1.731,555
1.731,553
1.731,554
1.731,560
1.731,562
1.733,555
1.733,541
1.733,525
1.733,515
1.733,510
1.733,507
1.733,505
1.736,504
1.736,501
1.736,496
1.736,490
1.736,481
1.736,471
1.738,463
1.738,460
1.738,462
1.738,467
1.739,475
1.739,489
1.739,510
1.742,534
1.742,565
1.742,600
1.742,631
1.742,651
1.742,658
1.744,656
1.744,649
1.744,641
1.745,636
1.745,632
1.745,627
1.747,620
1.747,609
1.747,599
1.747,596
1.747,598
1.748,600
1.748,605
1.75,611
1.75,615
1.75,617
1.75,619
1.75,621
1.75,623
1.752,629
1.752,638
1.752,643
1.752,645
1.752,645
1.752,641
1.752,630
1.755,614
1.755,594
1.755,577
1.755,560
1.755,546
1.756,532
1.758,522
1.758,513
1.758,502
1.758,488
1.758,472
1.758,459
1.76,453
1.76,448
1.76,449
1.761,453
1.761,455
1.761,456
1.761,461
1.763,468
1.763,477
1.763,485
1.763,495
1.763,508
1.764,527
1.765,552
1.766,579
1.766,606
1.766,630
1.766,652
1.766,666
1.766,674
1.768,675
1.769,673
1.769,672
1.769,671
1.769,665
1.769,654
1.771,634
1.771,611
1.771,591
1.771,578
1.772,570
1.772,563
1.774,559
1.774,553
1.774,545
1.774,537
1.774,528
1.774,521
1.774,516
1.777,511
1.777,505
1.777,501
1.777,500
1.777,505
1.777,508
1.78,504
1.78,497
1.78,496
1.78,499
1.78,506
1.78,514
1.78,518
1.782,521
1.782,522
1.782,523
1.782,530
1.782,546
1.783,562
1.785,574
1.785,584
1.785,590
1.785,594
1.785,597
1.785,596
1.787,594
1.788,591
1.788,589
1.788,586
1.788,583
1.789,582
1.789,583
1.79,579
1.79,569
1.79,555
1.79,544
1.791,541
1.791,540
1.793,537
1.793,534
1.793,532
1.793,531
1.793,530
1.793,527
1.793,522
1.796,517
1.796,509
1.796,500
1.796,492
1.796,487
1.796,487
1.799,491
1.799,499
1.799,512
1.799,527
1.799,539
1.799,543
1.801,539
1.801,532
1.801,532
1.801,540
1.801,553
1.801,567
1.802,574
1.804,574
1.804,570
1.804,563
1.804,558
1.804,559
1.804,566
1.806,575
1.806,587
1.806,603
1.807,615
1.807,622
1.807,626
1.807,626
1.81,621
1.81,612
1.81,602
1.81,593
1.81,583
1.81,571
1.812,563
1.812,560
1.812,555
1.812,548
1.812,544
1.812,541
1.815,539
1.815,542
1.815,547
1.815,546
1.815,541
1.815,535
1.815,532
1.818,536
1.818,542
1.818,549
1.818,557
1.818,559
1.818,554
1.82,540
1.82,519
1.82,498
1.82,485
1.82,478
1.82,478
1.82,485
1.823,491
1.823,493
1.823,495
1.823,504
1.823,517
1.823,526
1.826,529
1.826,532
1.826,538
1.826,542
1.826,543
1.826,542
1.829,544
1.829,545
1.829,544
1.829,539
1.829,536
1.829,536
1.829,536
1.831,534
1.831,534
1.831,540
1.831,546
1.831,548
1.831,548
1.834,550
1.834,552
1.834,556
1.834,561
1.834,568
1.834,572
1.834,573
1.837,574
1.837,574
1.837,574
1.837,573
1.837,562
1.837,543
1.839,521
1.839,504
1.839,492
1.839,481
1.84,473
1.84,467
1.841,460
1.842,454
1.842,451
1.842,454
1.842,461
1.842,474
1.842,492
1.845,512
1.845,527
1.845,545
1.845,566
1.845,585
1.845,601
1.847,617
1.847,630
1.847,639
1.847,644
1.847,643
1.847,635
1.848,623
1.85,607
1.85,589
1.85,575
1.85,564
1.85,556
1.85,554
1.853,553
1.853,553
1.853,552
1.853,550
1.853,546
1.854,540
1.855,532
1.855,519
1.855,508
1.855,499
1.855,491
1.856,487
1.856,488
1.858,490
1.858,490
1.858,489
1.858,493
1.858,504
1.858,519
1.861,536
1.861,550
1.861,559
1.861,561
1.861,555
1.861,544
1.861,532
1.864,521
1.864,512
1.864,504
1.864,501
1.864,504
1.864,512
1.867,525
1.867,538
1.867,551
1.867,559
1.867,565
1.868,573
1.869,580
1.869,581
1.869,578
1.87,573
1.87,565
1.87,556
1.87,543
1.872,525
1.872,508
1.872,495
1.872,485
1.872,479
1.872,477
1.875,478
1.875,478
1.875,479
1.875,479
1.875,478
1.875,479
1.875,480
1.877,481
1.877,484
1.877,491
1.877,501
1.877,510
1.877,515
1.88,519
1.88,519
1.88,513
1.88,505
1.88,499
1.88,494
1.883,489
1.883,488
1.883,492
1.883,497
1.883,502
1.883,512
1.883,529
1.886,540
1.886,544
1.886,546
1.886,548
1.886,552
1.886,558
1.888,566
1.888,579
1.888,592
1.889,603
1.889,605
1.889,605
1.889,605
1.891,604
1.891,604
1.891,603
1.891,604
1.891,606
1.891,611
1.894,620
1.894,629
1.894,639
1.894,641
1.894,636
1.894,626
1.897,615
1.897,606
1.897,599
1.897,592
1.897,582
1.897,570
1.897,555
1.899,533
1.899,513
1.9,500
1.9,491
1.9,486
1.9,483
1.902,486
1.902,489
1.902,493
1.902,500
1.902,511
1.902,521
1.902,529
1.905,533
1.905,531
1.906,524
1.906,518
1.906,519
1.906,523
1.907,532
1.907,539
1.908,541
1.908,541
1.908,543
1.908,544
1.91,541
1.91,530
1.91,518
1.91,508
1.91,499
1.91,489
1.91,477
1.913,469
1.913,465
1.913,467
1.913,473
1.913,483
1.913,493
1.916,502
1.916,511
1.916,520
1.916,529
1.916,538
1.917,541
1.917,537
1.918,531
1.918,525
1.918,520
1.918,517
1.919,514
1.919,509
1.92,504
1.921,502
1.921,501
1.921,499
1.921,498
1.921,499
1.923,506
1.923,510
1.923,512
1.923,516
1.923,518
1.923,519
1.924,521
1.926,525
1.926,529
1.926,531
1.926,533
1.926,537
1.926,541
1.928,540
1.929,535
1.929,528
1.929,524
1.929,523
1.929,523
1.929,521
1.931,520
1.931,521
1.931,523
1.931,529
1.932,537
1.932,548
1.934,563
1.934,583
1.934,601
1.934,617
1.934,629
1.935,632
1.937,627
1.937,618
1.937,607
1.937,592
1.937,578
1.937,567
1.938,560
1.94,552
1.94,542
1.94,530
1.94,517
1.94,505
1.94,495
1.942,484
1.942,473
1.942,466
1.942,465
1.942,469
1.942,472
1.942,472
1.946,472
1.946,476
1.946,485
1.946,494
1.946,503
1.946,509
1.948,517
1.948,528
1.948,540
1.948,550
1.948,556
1.948,559
1.951,562
1.951,565
1.951,569
1.951,574
1.951,585
1.951,597
1.951,606
1.954,610
1.954,611
1.954,612
1.954,610
1.954,604
1.954,590
1.956,576
1.956,568
1.956,562
1.956,556
1.956,549
1.956,543
1.956,536
1.958,531
1.959,527
1.959,521
1.959,510
1.959,500
1.959,490
1.962,484
1.962,481
1.962,478
1.962,474
1.962,468
1.962,461
1.965,459
1.965,463
1.965,472
1.965,482
1.965,493
1.965,502
1.966,508
1.967,511
1.967,512
1.967,514
1.967,516
1.967,516
1.967,513
1.97,509
1.97,503
1.97,502
1.97,502
1.97,503
1.971,505
1.971,510
1.972,518
1.972,528
1.972,540
1.972,550
1.972,557
1.972,561
1.976,567
1.976,574
1.976,581
1.976,582
1.976,582
1.976,583
1.978,581
1.978,572
1.978,562
1.978,555
1.979,549
1.979,542
1.979,536
1.981,532
1.981,531
1.981,533
1.981,532
1.981,534
1.981,540
1.984,546
1.984,552
1.984,557
1.984,557
1.984,547
1.984,535
1.984,531
1.986,532
1.986,532
1.986,533
1.986,533
1.986,527
1.986,522
1.988,518
1.988,518
1.989,522
1.989,525
1.989,527
1.989,524
1.992,524
1.992,527
1.992,528
1.992,530
1.992,533
1.992,538
1.992,544
1.995,553
1.995,569
1.995,587
1.995,603
1.995,619
1.995,631
1.997,637
1.997,631
1.997,616
1.997,600
1.997,584
1.997,567
1.998,547
2.0,527
2.0,511
2.0,497
2.0,481
2.0,466
2.0,455
2.003,453
2.003,462
2.003,474
2.003,485
2.003,488
2.003,485
2.005,481
2.005,478
2.005,475
2.005,476
2.005,480
2.005,484
2.007,487
2.008,490
2.008,493
2.008,494
2.008,496
2.008,496
2.009,495
2.01,495
2.011,499
2.011,511
2.011,524
2.011,534
2.011,539
2.011,538
2.013,535
2.013,534
2.013,537
2.013,535
2.014,526
2.014,514
2.016,507
2.016,508
2.016,516
2.016,527
2.016,539
2.016,548
2.018,554
2.019,557
2.019,558
2.019,553
2.019,547
2.019,543
2.019,538
2.021,531
2.022,526
2.022,527
2.022,530
2.022,534
2.022,538
2.024,544
2.024,553
2.024,562
2.024,571
2.024,581
2.024,591
2.024,601
2.027,609
2.027,613
2.027,609
2.027,598
2.027,583
2.027,567
2.03,552
2.03,543
2.03,540
2.03,543
2.03,546
2.03,547
2.033,548
2.033,548
2.033,547
2.033,546
2.033,546
2.033,540
2.033,532
2.035,525
2.035,520
2.035,515
2.035,512
2.035,518
2.035,529
2.038,536
2.038,542
2.038,548
2.039,553
2.039,558
2.039,561
2.039,557
2.041,547
2.041,535
2.041,524
2.041,514
2.042,505
2.042,497
2.044,492
2.044,491
2.044,489
2.044,486
2.044,485
2.044,489
2.046,495
2.046,505
2.046,517
2.046,526
2.046,534
2.046,543
2.047,550
2.049,556
2.049,560
2.049,560
2.049,559
2.049,563
2.049,569
2.052,577
2.052,585
2.052,592
2.052,597
2.052,599
2.052,600
2.052,602
2.054,604
2.054,604
2.054,599
2.054,588
2.055,577
2.055,565
2.057,552
2.057,546
2.057,545
2.057,540
2.057,525
2.057,505
2.06,488
2.06,476
2.06,474
2.06,479
2.06,483
2.06,489
2.06,494
2.062,501
2.062,511
2.062,520
2.062,524
2.062,525
2.062,526
2.065,530
2.065,532
2.065,534
2.065,541
2.065,555
2.065,571
2.066,584
2.068,593
2.068,596
2.068,593
2.068,588
2.069,582
2.069,579
2.071,573
2.071,564
2.071,554
2.071,546
2.071,540
2.072,538
2.073,536
2.073,531
2.073,526
2.073,520
2.073,517
2.073,514
2.073,514
2.076,518
2.076,523
2.076,525
2.076,528
2.076,528
2.076,525
2.079,517
2.079,506
2.079,493
2.079,480
2.079,470
2.079,464
2.08,464
2.082,470
2.082,480
2.082,494
2.082,505
2.082,511
2.082,518
2.084,524
2.084,529
2.084,533
2.084,538
2.084,541
2.084,546
2.087,552
2.087,559
2.087,566
2.087,574
2.087,583
2.087,594
2.087,604
2.089,612
2.089,616
2.089,614
2.089,606
2.089,598
2.09,592
2.092,583
2.092,571
2.092,554
2.092,534
2.092,513
2.092,493
2.092,480
2.095,473
2.095,470
2.095,470
2.095,477
2.095,488
2.095,502
2.098,519
2.098,534
2.098,543
2.098,551
2.098,556
2.098,561
2.101,562
2.101,558
2.101,553
2.101,549
2.101,540
2.101,529
2.102,516
2.103,502
2.103,494
2.103,490
2.104,486
2.104,480
2.104,471
2.106,460
2.106,450
2.106,444
2.106,442
2.106,446
2.106,456
2.106,469
2.109,482
2.109,496
2.109,513
2.109,532
2.109,555
2.109,582
2.112,606
2.112,622
2.112,634
2.112,641
2.112,641
2.112,635
2.114,622
2.114,604
2.114,586
2.114,567
2.114,546
2.114,529
2.114,517
2.117,509
2.117,499
2.117,487
2.117,476
2.117,465
2.117,456
2.12,447
2.12,440
2.12,438
2.12,439
2.12,438
2.12,436
2.12,435
2.122,437
2.122,440
2.122,444
2.122,452
2.123,461
2.123,472
2.125,485
2.125,497
2.125,507
2.125,517
2.125,529
2.125,543
2.128,560
2.128,578
2.128,596
2.128,617
2.128,636
2.128,649
2.129,654
2.131,650
2.131,642
2.131,632
2.131,621
2.131,608
2.131,593
2.133,581
2.133,570
2.134,562
2.134,553
2.134,542
2.134,530
2.134,521
2.136,516
2.136,515
2.136,518
2.136,521
2.136,523
2.137,522
2.139,523
2.139,525
2.139,528
2.139,533
2.139,534
2.14,534
2.142,536
2.142,542
2.142,550
2.142,557
2.142,562
2.142,566
2.143,565
2.144,561
2.144,562
2.144,569
2.144,575
2.144,578
2.145,575
2.147,568
2.147,558
2.147,548
2.147,540
2.147,534
2.147,532
2.148,533
2.149,539
2.149,548
2.149,556
2.15,558
2.15,552
2.15,545
2.152,541
2.152,540
2.152,539
2.152,537
2.152,533
2.152,527
2.155,514
2.155,499
2.155,490
2.155,486
2.155,487
2.156,490
2.156,492
2.158,492
2.158,488
2.158,479
2.158,464
2.158,450
2.158,442
2.16,440
2.16,443
2.16,451
2.161,460
2.161,468
2.161,474
2.161,480
2.163,487
2.163,496
2.163,508
2.163,522
2.163,540
2.163,558
2.166,572
2.166,582
2.166,590
2.166,593
2.166,591
2.166,587
2.168,582
2.169,577
2.169,571
2.169,562
2.169,551
2.169,538
2.169,522
2.171,507
2.171,496
2.172,490
2.172,485
2.172,480
2.172,478
2.174,476
2.174,472
2.174,470
2.174,469
2.174,469
2.174,469
2.174,471
2.177,475
2.177,483
2.177,493
2.177,505
2.177,519
2.177,533
2.179,548
2.18,559
2.18,563
2.18,564
2.18,564
2.18,560
2.182,550
2.182,537
2.182,522
2.182,512
2.182,507
2.183,503
2.183,499
2.185,497
2.185,499
2.185,500
2.185,503
2.185,509
2.185,516
2.188,524
2.188,532
2.188,539
2.188,542
2.189,540
2.189,540
2.189,538
2.19,536
2.19,534
2.19,533
2.19,536
2.191,541
2.191,544
2.193,545
2.193,538
2.193,527
2.193,519
2.193,514
2.193,513
2.196,514
2.196,513
2.196,513
2.196,513
2.196,514
2.196,514
2.196,515
2.199,512
2.199,510
2.199,507
2.199,504
2.199,504
2.199,510
2.201,518
2.201,527
2.201,540
2.201,554
2.201,565
2.201,568
2.201,561
2.204,549
2.204,537
2.204,527
2.204,519
2.204,514
2.204,509
2.207,503
2.207,499
2.207,499
2.207,504
2.207,510
2.207,516
2.21,518
2.21,519
2.21,520
2.21,517
2.21,512
2.21,508
2.21,504
2.212,501
2.212,499
2.212,502
2.212,506
2.212,512
2.212,522
2.215,530
2.215,534
2.215,535
2.215,533
2.215,527
2.215,522
2.215,513
2.218,502
2.218,490
2.218,481
2.218,474
2.218,467
2.218,461
2.22,459
2.22,457
2.22,458
2.22,462
2.22,469
2.22,481
2.223,496
2.223,512
2.223,525
2.223,535
2.223,542
2.223,550
2.223,558
2.226,564
2.226,567
2.226,567
2.226,563
2.226,559
2.226,556
2.228,555
2.228,554
2.228,552
2.228,552
2.228,555
2.229,562
2.229,569
2.231,574
2.231,582
2.231,593
2.231,605
2.231,614
2.231,621
2.234,624
2.234,625
2.234,621
2.234,611
2.234,595
2.234,579
2.237,568
2.237,562
2.237,558
2.237,548
2.237,533
2.237,518
2.237,506
2.239,495
2.239,486
2.239,478
2.24,474
2.24,473
2.24,475
2.242,478
2.242,482
2.242,491
2.242,502
2.242,512
2.242,520
2.242,531
2.245,543
2.245,555
2.245,565
2.245,572
2.245,574
2.246,573
2.247,570
2.247,567
2.247,569
2.248,578
2.248,592
2.248,602
2.25,604
2.25,604
2.25,605
2.25,606
2.25,607
2.25,607
2.25,601
2.253,589
2.253,574
2.253,560
2.253,547
2.253,534
2.253,517
2.256,498
2.256,482
2.256,470
2.256,462
2.256,458
2.256,454
2.256,450
2.259,450
2.259,450
2.259,450
2.259,447
2.259,442
2.259,438
2.261,431
2.261,422
2.261,414
2.261,409
2.261,412
2.261,425
2.263,445
2.263,466
2.263,483
2.264,501
2.264,519
2.264,536
2.264,553
2.266,570
2.266,581
2.266,585
2.266,581
2.266,578
2.266,577
2.269,580
2.269,582
2.269,584
2.269,588
2.269,593
2.269,593
2.269,583
2.272,567
2.272,555
2.272,551
2.272,552
2.272,556
2.272,560
2.274,564
2.274,564
2.275,561
2.275,558
2.275,553
2.275,545
2.277,535
2.277,521
2.277,508
2.277,495
2.277,482
2.277,472
2.277,462
2.28,452
2.28,445
2.28,439
2.28,435
2.28,437
2.28,445
2.283,457
2.283,474
2.283,493
2.283,515
2.283,536
2.283,556
2.284,576
2.286,595
2.286,610
2.286,619
2.286,620
2.286,614
2.286,604
2.288,591
2.288,579
2.288,571
2.288,566
2.289,561
2.289,554
2.291,546
2.291,536
2.291,528
2.291,523
2.291,518
2.291,510
2.292,500
2.294,489
2.294,478
2.294,473
2.294,472
2.294,475
2.295,476
2.297,477
2.297,479
2.297,478
2.297,475
2.297,471
2.297,470
2.298,473
2.299,477
2.299,477
2.299,478
2.299,479
2.299,478
2.3,480
2.302,486
2.302,489
2.302,495
2.302,507
2.302,521
2.303,538
2.305,550
2.305,550
2.305,542
2.305,533
2.306,527
2.306,523
2.306,524
2.307,527
2.307,530
2.307,534
2.307,538
2.307,541
2.307,545
2.31,548
2.31,550
2.31,552
2.31,554
2.31,554
2.31,553
2.311,550
2.313,547
2.313,546
2.313,544
2.313,540
2.313,538
2.314,538
2.316,540
2.316,546
2.316,556
2.316,571
2.316,587
2.316,600
2.318,606
2.318,603
2.318,598
2.318,592
2.318,581
2.318,568
2.319,556
2.32,543
2.32,530
2.321,520
2.321,513
2.321,511
2.321,510
2.324,512
2.324,515
2.324,520
2.324,523
2.324,525
2.325,528
2.325,527
2.327,525
2.327,523
2.327,522
2.327,522
2.327,523
2.327,525
2.329,527
2.329,530
2.329,538
2.329,552
2.329,567
2.329,581
2.332,588
2.332,588
2.332,585
2.332,578
2.332,568
2.332,553
2.333,534
2.335,512
2.335,492
2.335,478
2.335,470
2.335,466
2.335,466
2.337,471
2.337,476
2.337,483
2.337,489
2.337,495
2.338,500
2.338,504
2.34,508
2.34,512
2.34,510
2.34,504
2.34,502
2.34,502
2.343,501
2.343,501
2.343,503
2.343,507
2.343,510
2.343,513
2.346,518
2.346,520
2.346,520
2.346,520
2.346,522
2.346,524
2.346,529
2.348,537
2.348,543
2.348,547
2.348,552
2.348,556
2.348,557
2.351,553
2.351,549
2.351,549
2.351,550
2.351,548
2.351,543
2.351,538
2.354,533
2.354,528
2.354,524
2.354,523
2.354,523
2.355,522
2.356,521
2.356,520
2.356,520
2.356,521
2.356,520
2.356,516
2.359,510
2.359,503
2.359,495
2.359,487
2.359,478
2.359,470
2.359,464
2.362,459
2.362,457
2.362,458
2.362,460
2.362,463
2.362,467
2.365,473
2.365,476
2.365,479
2.365,483
2.365,493
2.365,503
2.365,516
2.367,527
2.367,538
2.367,550
2.368,564
2.368,575
2.368,585
2.369,592
2.37,596
2.37,595
2.37,591
2.37,587
2.37,584
2.372,584
2.372,586
2.372,585
2.372,581
2.372,575
2.372,568
2.372,561
2.375,552
2.375,541
2.375,530
2.375,521
2.375,512
2.375,504
2.377,499
2.377,495
2.377,491
2.378,493
2.378,500
2.378,507
2.378,510
2.38,511
2.38,509
2.38,505
2.38,504
2.38,506
2.38,509
2.383,517
2.383,528
2.383,538
2.383,537
2.383,528
2.383,517
2.386,514
2.386,521
2.386,531
2.386,539
2.386,547
2.386,558
2.386,570
2.388,582
2.389,590
2.389,597
2.389,602
2.389,602
2.389,597
2.392,589
2.392,578
2.392,564
2.392,551
2.392,538
2.392,526
2.392,514
2.394,504
2.394,497
2.394,495
2.394,494
2.394,493
2.394,496
2.397,505
2.397,517
2.397,528
2.397,536
2.397,540
2.397,542
2.4,544
2.4,544
2.4,542
2.4,536
2.4,528
2.4,519
2.4,507
2.403,491
2.403,473
2.403,461
2.403,453
2.403,450
2.403,452
2.405,460
2.405,471
2.405,485
2.405,498
2.405,512
2.405,524
2.407,533
2.408,540
2.408,547
2.408,551
2.408,554
2.409,558
2.409,556
2.411,555
2.411,558
2.411,563
2.411,562
2.411,557
2.412,555
2.413,559
2.413,569
2.414,580
2.414,586
2.414,586
2.414,578
2.414,559
2.416,535
2.416,512
2.416,496
2.416,485
2.416,478
2.416,470
2.419,463
2.419,462
2.419,466
2.419,476
2.419,487
2.419,497
2.42,504
2.422,506
2.422,506
2.422,507
2.422,508
2.422,510
2.422,512
2.424,512
2.424,508
2.424,503
2.424,499
2.424,499
2.424,500
2.427,500
2.427,500
2.427,502
2.427,506
2.427,510
2.427,517
2.427,525
2.43,531
2.43,536
2.43,543
2.43,550
2.43,557
2.43,562
2.433,567
2.433,574
2.433,582
2.433,581
2.433,573
2.433,560
2.434,545
2.435,529
2.435,518
2.435,513
2.435,511
2.435,505
2.435,495
2.438,485
2.438,476
2.438,474
2.438,475
2.439,475
2.439,476
2.441,474
2.441,469
2.441,467
2.441,470
2.441,476
2.441,487
2.441,500
2.443,518
2.443,537
2.443,554
2.444,566
2.444,574
2.444,578
2.446,583
2.446,590
2.446,596
2.446,598
2.447,600
2.447,603
2.447,603
2.449,597
2.449,588
2.449,576
2.449,568
2.449,565
2.449,564
2.452,560
2.452,555
2.452,552
2.452,553
2.452,555
2.452,552
2.454,547
2.454,539
2.454,531
2.454,518
2.454,502
2.454,492
2.455,489
2.456,488
2.456,485
2.457,478
2.457,469
2.457,464
2.457,464
2.459,466
2.459,466
2.459,464
2.459,460
2.459,455
2.46,448
2.46,443
2.462,440
2.462,440
2.462,442
2.462,448
2.462,458
2.462,466
2.465,474
2.465,481
2.465,489
2.465,504
2.465,522
2.465,540
2.468,552
2.468,557
2.468,558
2.468,559
2.468,556
2.468,551
2.468,545
2.471,542
2.471,543
2.471,547
2.471,555
2.471,565
2.471,578
2.473,589
2.473,598
2.473,608
2.473,614
2.473,614
2.473,607
2.473,594
2.476,577
2.476,558
2.476,538
2.476,514
2.477,487
2.477,462
2.479,446
2.479,438
2.479,432
2.479,426
2.479,422
2.479,423
2.481,427
2.481,433
2.482,439
2.482,443
2.482,445
2.482,447
2.482,447
2.484,447
2.484,449
2.484,455
2.484,465
2.485,477
2.485,490
2.487,506
2.487,528
2.487,549
2.487,567
2.487,584
2.487,600
2.488,604
2.489,595
2.49,583
2.49,575
2.49,569
2.49,568
2.49,569
2.492,568
2.492,562
2.492,551
2.492,539
2.492,531
2.492,523
2.495,515
2.495,509
2.495,505
2.495,504
2.495,507
2.495,513
2.495,519
2.498,522
2.498,523
2.498,522
2.498,523
2.498,525
2.498,525
2.501,524
2.501,525
2.501,526
2.501,526
2.501,524
2.501,519
2.502,507
2.503,494
2.503,484
2.503,480
2.503,481
2.503,486
2.504,494
2.506,505
2.506,517
2.506,528
2.506,543
2.507,563
2.507,582
2.509,599
2.509,615
2.509,626
2.509,627
2.509,623
2.51,619
2.51,613
2.512,601
2.512,586
2.512,569
2.512,557
2.513,550
2.513,547
2.514,544
2.514,539
2.514,532
2.514,524
2.514,519
2.514,516
2.514,510
2.517,504
2.517,499
2.517,499
2.517,502
2.517,506
2.517,510
2.52,511
2.52,512
2.52,511
2.52,509
2.52,508
2.52,506
2.522,498
2.522,487
2.523,478
2.523,469
2.523,464
2.523,462
2.523,462
2.525,465
2.525,471
2.525,477
2.525,481
2.525,482
2.525,480
2.528,476
2.528,473
2.528,472
2.528,473
2.528,475
2.528,481
2.528,490
2.53,507
2.53,529
2.531,552
2.531,569
2.531,577
2.531,579
2.533,581
2.533,588
2.533,595
2.533,597
2.533,593
2.533,586
2.535,577
2.536,565
2.536,550
2.536,536
2.536,522
2.536,507
2.536,495
2.539,486
2.539,478
2.539,467
2.539,454
2.539,442
2.539,434
2.541,432
2.541,437
2.541,447
2.541,463
2.542,480
2.542,496
2.542,509
2.544,521
2.544,532
2.544,540
2.544,547
2.544,549
2.544,547
2.546,544
2.546,544
2.546,547
2.546,551
2.546,553
2.546,554
2.549,558
2.55,564
2.55,569
2.55,568
2.55,564
2.55,556
2.55,548
2.552,544
2.552,542
2.552,537
2.552,526
2.552,512
2.552,499
2.555,490
2.555,484
2.555,480
2.555,477
2.555,475
2.555,476
2.555,477
2.557,481
2.557,489
2.558,497
2.558,504
2.558,510
2.558,509
2.56,501
2.56,490
2.56,482
2.56,477
2.56,473
2.56,469
2.562,466
2.563,467
2.563,474
2.563,485
2.563,497
2.563,508
2.563,517
2.565,523
2.565,527
2.566,530
2.566,534
2.566,539
2.566,546
2.568,554
2.568,560
2.568,562
2.568,562
2.568,566
2.569,574
2.569,584
2.571,592
2.571,599
2.571,601
2.571,600
2.571,597
2.571,593
2.573,589
2.573,583
2.573,575
2.573,563
2.573,544
2.575,522
2.577,500
2.577,484
2.577,472
2.577,460
2.577,446
2.577,432
2.577,415
2.58,398
2.58,390
2.58,391
2.58,398
2.58,407
2.58,416
2.582,432
2.582,458
2.582,491
2.582,520
2.582,543
2.582,559
2.582,571
2.585,577
2.585,580
2.585,580
2.585,576
2.585,571
2.585,563
2.588,551
2.588,539
2.588,526
2.588,516
2.588,510
2.588,508
2.591,510
2.591,510
2.591,509
2.591,509
2.591,512
2.591,516
2.591,517
2.593,518
2.593,517
2.593,515
2.593,511
2.593,506
2.593,502
2.596,501
2.596,502
2.596,501
2.596,498
2.596,492
2.596,485
2.596,475
2.599,464
2.599,455
2.599,449
2.599,443
2.599,437
2.599,431
2.601,430
2.601,438
2.601,452
2.601,471
2.601,490
2.602,503
2.604,514
2.604,519
2.604,519
2.604,518
2.604,519
2.604,521
2.605,523
2.607,523
2.607,522
2.607,522
2.607,523
2.607,525
2.607,527
2.609,522
2.609,518
2.609,515
2.609,513
2.609,509
2.609,502
2.609,496
2.612,492
2.612,490
2.612,490
2.612,489
2.612,489
2.612,490
2.615,493
2.615,501
2.615,509
2.615,517
2.615,524
2.615,527
2.618,529
2.618,525
2.618,516
2.618,506
2.618,499
2.618,497
2.618,497
2.62,498
2.62,496
2.62,498
2.62,503
2.62,506
2.62,510
2.622,513
2.622,516
2.622,520
2.623,525
2.623,530
2.623,533
2.623,534
2.625,530
2.625,523
2.625,513
2.625,505
2.625,501
2.625,500
2.628,501
2.628,507
2.628,514
2.628,521
2.628,528
2.628,533
2.631,538
2.631,546
2.631,555
2.631,564
2.631,576
2.631,587
2.631,596
2.634,603
2.634,602
2.634,595
2.634,583
2.634,569
2.634,554
2.637,539
2.637,523
2.637,507
2.637,491
2.637,478
2.637,469
2.638,463
2.639,461
2.639,464
2.639,469
2.639,470
2.64,469
2.64,465
2.642,462
2.642,462
2.642,467
2.642,474
2.642,479
2.642,483
2.645,488
2.645,496
2.645,508
2.645,519
2.645,525
2.645,536
2.645,549
2.647,557
2.647,562
2.647,565
2.647,569
2.648,575
2.648,578
2.65,576
2.65,571
2.65,565
2.65,556
2.65,547
2.651,542
2.651,537
2.653,534
2.653,530
2.653,528
2.653,524
2.653,517
2.653,507
2.655,498
2.655,488
2.655,483
2.655,485
2.655,491
2.656,496
2.658,497
2.658,492
2.658,484
2.658,477
2.658,471
2.658,461
2.658,451
2.66,444
2.66,437
2.661,430
2.661,429
2.661,437
2.661,448
2.663,458
2.663,467
2.663,479
2.663,492
2.663,511
2.664,535
2.664,556
2.666,575
2.666,588
2.666,594
2.666,599
2.666,604
2.666,607
2.668,610
2.669,610
2.669,604
2.669,594
2.669,583
2.669,574
2.671,566
2.671,558
2.672,553
2.672,552
2.672,554
2.672,554
2.672,553
2.675,550
2.675,543
2.675,534
2.675,522
2.675,508
2.675,495
2.677,481
2.677,467
2.678,452
2.678,438
2.678,430
2.678,425
2.678,420
2.68,421
2.68,428
2.68,434
2.68,438
2.68,441
2.68,442
2.683,441
2.683,443
2.683,445
2.683,447
2.683,449
2.683,448
2.686,446
2.686,443
2.686,442
2.686,442
2.686,445
2.686,448
2.686,452
2.688,458
2.688,466
2.688,473
2.688,481
2.689,489
2.689,502
2.691,516
2.691,527
2.691,533
2.691,539
2.691,546
2.691,550
2.691,550
2.693,548
2.693,544
2.693,538
2.694,534
2.694,531
2.694,525
2.696,522
2.696,528
2.696,542
2.696,556
2.696,565
2.696,570
2.699,572
2.699,567
2.699,557
2.699,548
2.699,539
2.699,528
2.7,515
2.702,502
2.702,489
2.702,478
2.702,472
2.702,472
2.702,474
2.705,474
2.705,476
2.705,483
2.705,495
2.705,511
2.706,527
2.706,542
2.708,558
2.708,573
2.708,583
2.708,589
2.709,592
2.709,595
2.71,596
2.71,597
2.71,597
2.71,592
2.71,590
2.71,590
2.713,589
2.713,588
2.713,585
2.713,581
2.713,574
2.713,564
2.713,555
2.716,547
2.716,538
2.716,532
2.716,525
2.716,512
2.716,497
2.718,487
2.718,483
2.718,482
2.718,480
2.718,477
2.718,475
2.719,474
2.721,473
2.721,473
2.721,474
2.721,476
2.721,478
2.722,480
2.723,483
2.723,486
2.724,491
2.724,496
2.724,504
2.724,514
2.726,526
2.726,537
2.726,545
2.726,549
2.726,550
2.727,550
2.727,548
2.729,546
2.729,548
2.729,553
2.729,557
2.729,555
2.729,550
2.732,546
2.732,543
2.732,544
2.732,545
2.732,542
2.732,535
2.732,529
2.735,524
2.735,520
2.735,513
2.735,507
2.735,504
2.735,503
2.737,503
2.737,499
2.737,492
2.737,487
2.737,483
2.737,481
2.739,485
2.739,493
2.739,499
2.74,504
2.74,508
2.74,512
2.74,520
2.743,533
2.743,549
2.743,562
2.743,570
2.743,574
2.743,577
2.746,579
2.746,580
2.746,579
2.746,575
2.746,564
2.746,548
2.746,530
2.748,513
2.748,501
2.748,496
2.748,495
2.748,495
2.748,493
2.751,490
2.751,492
2.751,495
2.751,497
2.751,498
2.751,499
2.754,501
2.754,504
2.754,508
2.754,511
2.754,515
2.754,522
2.754,530
2.756,535
2.756,537
2.756,538
2.756,540
2.757,540
2.757,540
2.759,538
2.759,528
2.759,512
2.759,497
2.759,487
2.759,483
2.759,484
2.762,488
2.762,491
2.762,492
2.762,488
2.762,478
2.762,469
2.765,463
2.765,460
2.765,461
2.765,465
2.765,475
2.765,487
2.767,496
2.767,503
2.767,512
2.767,526
2.767,543
2.767,560
2.767,575
2.77,587
2.77,596
2.77,597
2.77,594
2.77,594
2.77,595
2.772,590
2.772,578
2.772,568
2.772,561
2.772,555
2.772,544
2.772,532
2.775,519
2.775,505
2.775,494
2.775,485
2.775,477
2.775,469
2.777,461
2.777,456
2.778,458
2.778,467
2.778,483
2.778,502
2.781,521
2.781,536
2.781,552
2.781,569
2.781,584
2.781,595
2.781,602
2.784,608
2.784,612
2.784,608
2.784,591
2.784,571
2.784,550
2.786,531
2.786,524
2.786,526
2.786,530
2.786,531
2.787,529
2.787,526
2.789,526
2.789,531
2.789,541
2.789,551
2.789,558
2.789,560
2.791,560
2.791,558
2.791,558
2.791,561
2.791,562
2.791,560
2.794,552
2.794,544
2.794,537
2.794,530
2.794,523
2.794,517
2.794,508
2.797,495
2.797,482
2.797,469
2.797,460
2.797,454
2.797,451
2.8,450
2.8,454
2.8,461
2.8,469
2.8,479
2.8,491
2.8,501
2.802,509
2.802,514
2.802,520
2.803,525
2.803,531
2.803,536
2.805,537
2.805,535
2.805,536
2.805,537
2.805,534
2.806,529
2.808,524
2.808,519
2.808,512
2.808,502
2.808,493
2.808,485
2.808,481
2.811,479
2.811,480
2.811,482
2.811,487
2.811,494
2.811,500
2.813,503
2.813,500
2.813,495
2.813,486
2.813,477
2.813,469
2.813,463
2.816,458
2.816,455
2.816,454
2.816,455
2.816,458
2.816,462
2.819,464
2.819,467
2.819,470
2.819,475
2.819,484
2.819,492
2.822,500
2.822,507
2.822,512
2.822,514
2.822,514
2.823,514
2.823,515
2.824,519
2.824,521
2.824,519
2.824,517
2.824,519
2.824,525
2.827,534
2.827,544
2.827,552
2.827,558
2.827,561
2.827,564
2.827,566
2.83,570
2.83,574
2.83,579
2.83,580
2.83,579
2.83,578
2.833,576
2.833,574
2.833,568
2.833,559
2.834,550
2.834,543
2.835,536
2.835,530
2.835,526
2.836,524
2.836,523
2.836,518
2.836,513
2.838,504
2.838,490
2.838,472
2.838,455
2.839,442
2.839,436
2.841,435
2.841,436
2.841,443
2.841,455
2.841,468
2.841,480
2.841,492
2.843,503
2.843,512
2.843,520
2.843,529
2.843,539
2.843,548
2.846,557
2.846,567
2.846,580
2.846,594
2.846,605
2.846,609
2.848,607
2.848,605
2.849,605
2.849,606
2.849,606
2.849,601
2.849,593
2.851,582
2.851,571
2.851,561
2.851,553
2.852,543
2.852,531
2.854,518
2.854,508
2.854,500
2.854,491
2.854,483
2.854,478
2.855,476
2.857,474
2.857,471
2.857,468
2.857,468
2.857,471
2.857,477
2.859,483
2.859,489
2.859,497
2.86,504
2.86,509
2.86,509
2.862,505
2.862,494
2.862,482
2.862,472
2.862,465
2.862,462
2.862,463
2.865,462
2.865,460
2.865,458
2.865,459
2.865,461
2.865,468
2.867,477
2.868,487
2.868,499
2.868,511
2.868,520
2.868,526
2.868,533
2.87,540
2.87,547
2.87,556
2.871,567
2.871,576
2.871,583
2.873,588
2.873,589
2.873,586
2.873,577
2.873,568
2.873,560
2.876,547
2.876,531
2.876,514
2.876,497
2.876,484
2.876,473
2.876,462
2.879,452
2.879,445
2.879,442
2.879,445
2.879,451
2.879,462
2.882,477
2.882,493
2.882,507
2.882,518
2.882,527
2.882,535
2.883,543
2.884,549
2.884,548
2.884,548
2.884,555
2.884,563
2.884,563
2.887,557
2.887,550
2.887,541
2.887,529
2.887,519
2.887,515
2.889,515
2.889,517
2.889,518
2.889,520
2.89,520
2.89,520
2.89,520
2.892,519
2.892,519
2.892,518
2.892,514
2.892,510
2.892,508
2.895,506
2.895,508
2.895,512
2.895,515
2.895,516
2.895,512
2.895,504
2.898,495
2.898,486
2.898,481
2.898,481
2.898,483
2.898,485
2.901,486
2.901,485
2.901,482
2.901,475
2.901,469
2.901,472
2.903,483
2.903,494
2.903,505
2.903,511
2.903,512
2.903,510
2.903,506
2.906,502
2.906,497
2.906,492
2.906,487
2.906,487
2.906,492
2.909,499
2.909,510
2.909,524
2.91,537
2.91,550
2.91,564
2.91,575
2.911,585
2.911,590
2.911,592
2.911,593
2.911,588
2.911,575
2.914,557
2.914,540
2.914,527
2.914,519
2.914,516
2.914,517
2.917,521
2.917,528
2.917,539
2.917,556
2.917,574
2.917,589
2.917,594
2.92,590
2.92,579
2.92,565
2.92,547
2.92,528
2.92,511
2.922,499
2.922,493
2.923,487
2.923,483
2.923,483
2.923,483
2.923,485
2.925,490
2.925,498
2.925,506
2.925,512
2.925,516
2.926,518
2.928,520
2.928,525
2.928,531
2.928,533
2.928,531
2.928,525
2.93,517
2.93,506
2.93,498
2.93,489
2.93,484
2.93,482
2.93,482
2.933,485
2.933,490
2.933,498
2.933,504
2.933,509
2.933,512
2.936,515
2.936,517
2.936,513
2.936,508
2.936,504
2.936,500
2.937,498
2.939,499
2.939,500
2.939,498
2.939,494
2.939,491
2.94,489
2.941,487
2.942,484
2.942,482
2.942,483
2.942,484
2.942,485
2.944,491
2.944,501
2.944,518
2.944,536
2.944,556
2.944,575
2.944,591
2.946,607
2.946,619
2.947,623
2.947,617
2.947,610
2.947,604
2.949,602
2.949,602
2.949,603
2.949,602
2.949,597
2.949,588
2.949,578
2.952,567
2.952,554
2.952,541
2.953,529
2.953,517
2.953,505
2.955,495
2.955,484
2.955,477
2.955,476
2.955,479
2.955,482
2.957,483
2.957,482
2.957,481
2.957,478
2.957,473
2.958,468
2.958,462
2.96,456
2.96,454
2.96,454
2.96,452
2.96,449
2.961,447
2.963,448
2.963,453
2.963,460
2.963,467
2.963,474
2.963,479
2.963,485
2.966,494
2.966,503
2.966,509
2.966,514
2.966,522
2.966,534
2.969,550
2.969,564
2.969,576
2.969,582
2.969,585
2.969,587
2.971,588
2.971,584
2.971,577
2.971,570
2.971,563
2.971,552
2.971,537
2.974,521
2.974,510
2.974,505
2.974,501
2.974,496
2.974,490
2.977,485
2.977,480
2.977,472
2.977,466
2.977,460
2.977,458
2.977,455
2.98,451
2.98,448
2.98,447
2.98,448
2.98,448
2.98,446
2.982,445
2.982,443
2.982,441
2.982,443
2.982,450
2.982,462
2.985,474
2.985,486
2.985,501
2.985,516
2.985,527
2.985,535
2.985,539
2.988,542
2.988,548
2.988,559
2.988,574
2.988,587
2.988,596
2.99,603
2.99,610
2.99,620
2.99,629
2.99,633
2.99,631
2.99,624
2.993,614
2.993,604
2.993,601
2.993,603
2.993,602
2.993,596
2.996,588
2.996,580
2.996,573
2.996,568
2.996,561
2.996,547
2.998,530
2.998,514
2.998,504
2.998,503
2.998,504
2.998,500
2.998,493
