Timestamp,Sensor Data
0.0,537
0.0,538
0.0,538
0.001,538
0.001,538
0.001,538
0.002,538
0.003,537
0.003,537
0.003,536
0.003,535
0.003,535
0.005,533
0.005,531
0.005,529
0.006,527
0.006,526
0.006,524
0.006,522
0.008,520
0.008,517
0.009,514
0.009,511
0.009,508
0.009,504
0.011,501
0.011,497
0.011,494
0.011,491
0.011,488
0.011,485
0.012,483
0.013,480
0.014,478
0.014,476
0.014,475
0.014,473
0.014,471
0.016,469
0.016,468
0.016,468
0.016,467
0.017,466
0.017,467
0.019,469
0.019,474
0.019,481
0.019,488
0.02,494
0.02,499
0.02,505
0.022,512
0.022,518
0.022,525
0.022,532
0.023,538
0.023,543
0.024,547
0.025,552
0.025,555
0.025,557
0.025,558
0.025,558
0.025,557
0.027,556
0.027,553
0.027,549
0.027,545
0.027,541
0.029,536
0.03,530
0.03,524
0.031,518
0.031,512
0.031,506
0.031,501
0.033,497
0.033,492
0.033,488
0.033,484
0.033,481
0.033,477
0.034,474
0.036,472
0.036,471
0.036,469
0.036,469
0.036,469
0.036,469
0.038,470
0.038,471
0.038,473
0.038,476
0.038,479
0.038,483
0.039,488
0.041,492
0.041,498
0.041,504
0.041,509
0.041,515
0.042,520
0.044,525
0.044,530
0.044,534
0.044,538
0.044,541
0.045,543
0.046,545
0.047,544
0.047,544
0.047,542
0.047,539
0.047,536
0.047,532
0.049,527
0.049,522
0.049,516
0.049,510
0.05,505
0.05,499
0.051,494
0.051,489
0.051,484
0.051,479
0.051,475
0.051,471
0.052,468
0.055,465
0.055,463
0.055,460
0.055,458
0.055,456
0.055,455
0.057,454
0.057,454
0.058,455
0.058,456
0.058,458
0.058,460
0.06,461
0.06,462
0.06,463
0.06,465
0.06,467
0.06,469
0.061,471
0.062,475
0.063,481
0.063,493
0.063,504
0.063,514
0.063,522
0.065,529
0.065,535
0.065,540
0.065,545
0.065,549
0.066,552
0.066,554
0.068,554
0.068,552
0.068,549
0.068,544
0.068,539
0.068,534
0.071,528
0.071,522
0.071,517
0.071,512
0.071,506
0.071,501
0.074,497
0.074,493
0.074,489
0.074,486
0.074,484
0.075,482
0.075,481
0.076,480
0.076,480
0.076,480
0.076,481
0.076,482
0.076,484
0.079,486
0.079,490
0.079,493
0.079,498
0.08,502
0.08,507
0.08,512
0.082,517
0.082,522
0.082,527
0.082,531
0.082,536
0.082,540
0.084,543
0.084,545
0.084,547
0.084,548
0.084,547
0.084,546
0.087,544
0.087,542
0.087,539
0.087,537
0.087,535
0.087,531
0.087,527
0.09,521
0.09,515
0.09,508
0.09,502
0.09,495
0.09,490
0.093,485
0.093,480
0.093,477
0.093,473
0.093,470
0.093,466
0.093,463
0.095,461
0.095,459
0.095,459
0.095,460
0.095,464
0.095,470
0.098,475
0.098,481
0.098,485
0.098,489
0.098,493
0.098,496
0.101,501
0.101,505
0.101,509
0.101,513
0.101,518
0.101,522
0.102,527
0.103,531
0.103,536
0.103,540
0.103,543
0.103,545
0.103,546
0.106,547
0.106,547
0.106,546
0.106,543
0.106,540
0.106,537
0.107,533
0.108,528
0.108,522
0.108,516
0.109,509
0.109,501
0.109,494
0.112,488
0.112,483
0.112,478
0.112,473
0.112,468
0.112,464
0.114,461
0.114,459
0.114,458
0.114,458
0.114,459
0.114,461
0.114,464
0.117,467
0.117,471
0.117,475
0.117,478
0.117,482
0.117,485
0.12,488
0.12,492
0.12,495
0.12,499
0.12,503
0.12,508
0.121,513
0.123,517
0.123,521
0.123,525
0.123,529
0.123,532
0.123,535
0.125,538
0.125,541
0.125,544
0.125,547
0.125,549
0.125,548
0.128,547
0.128,545
0.128,542
0.128,538
0.128,533
0.129,528
0.129,523
0.131,517
0.131,512
0.131,507
0.131,502
0.131,497
0.131,493
0.133,488
0.133,484
0.133,481
0.133,479
0.133,476
0.133,476
0.133,475
0.136,475
0.136,475
0.136,476
0.136,477
0.136,478
0.136,480
0.138,482
0.138,484
0.139,488
0.139,493
0.139,497
0.139,502
0.141,508
0.141,513
0.141,519
0.141,524
0.142,529
0.142,534
0.142,538
0.144,541
0.144,543
0.144,544
0.144,544
0.144,544
0.144,543
0.147,541
0.147,538
0.147,533
0.147,528
0.147,522
0.147,517
0.147,510
0.15,503
0.15,498
0.15,494
0.15,490
0.15,487
0.15,484
0.153,483
0.153,485
0.153,488
0.153,489
0.153,490
0.153,489
0.155,489
0.155,487
0.155,486
0.155,485
0.156,485
0.156,484
0.156,485
0.158,486
0.158,487
0.158,488
0.158,490
0.158,492
0.159,495
0.161,499
0.161,503
0.161,508
0.161,512
0.161,517
0.161,521
0.162,525
0.163,529
0.163,533
0.163,537
0.163,540
0.163,544
0.164,545
0.165,545
0.165,544
0.166,543
0.166,542
0.166,544
0.166,544
0.168,543
0.168,540
0.168,535
0.168,530
0.168,525
0.169,521
0.169,516
0.171,512
0.171,507
0.171,503
0.171,498
0.172,494
0.172,490
0.174,486
0.174,484
0.174,481
0.174,479
0.174,478
0.174,476
0.175,476
0.176,476
0.176,477
0.177,479
0.177,480
0.177,482
0.177,483
0.179,486
0.179,490
0.179,494
0.179,498
0.179,503
0.179,508
0.182,514
0.182,519
0.182,525
0.182,529
0.182,533
0.182,536
0.182,540
0.185,543
0.185,544
0.185,546
0.185,546
0.185,546
0.185,545
0.188,543
0.188,540
0.188,537
0.188,532
0.188,528
0.188,524
0.189,519
0.191,513
0.191,509
0.191,504
0.191,498
0.191,492
0.191,487
0.193,481
0.193,477
0.193,473
0.193,470
0.193,469
0.193,466
0.196,466
0.196,465
0.196,465
0.196,466
0.196,467
0.196,467
0.196,468
0.199,471
0.199,474
0.199,477
0.199,482
0.199,485
0.199,489
0.201,493
0.201,498
0.202,503
0.202,509
0.202,515
0.202,520
0.202,525
0.204,531
0.204,537
0.204,543
0.204,548
0.204,551
0.205,552
0.207,552
0.207,552
0.207,550
0.207,547
0.207,543
0.207,539
0.21,534
0.21,528
0.21,523
0.21,518
0.21,513
0.21,509
0.21,504
0.212,500
0.212,495
0.212,490
0.212,486
0.212,482
0.213,479
0.215,477
0.215,475
0.215,473
0.215,472
0.215,472
0.216,473
0.216,474
0.217,476
0.217,478
0.218,480
0.218,482
0.218,484
0.218,487
0.22,488
0.22,490
0.22,493
0.22,496
0.22,499
0.22,502
0.223,506
0.223,509
0.223,512
0.223,514
0.223,515
0.223,514
0.223,513
0.226,512
0.226,513
0.226,514
0.226,517
0.226,521
0.226,525
0.229,527
0.229,527
0.229,527
0.229,526
0.229,524
0.229,521
0.229,517
0.231,513
0.231,509
0.231,507
0.231,505
0.231,502
0.232,499
0.234,497
0.234,495
0.234,492
0.234,490
0.234,489
0.234,489
0.237,488
0.237,488
0.237,489
0.237,490
0.237,491
0.237,493
0.237,495
0.239,498
0.24,501
0.24,506
0.24,510
0.24,515
0.24,520
0.242,525
0.242,530
0.242,535
0.242,539
0.242,543
0.242,547
0.243,551
0.245,553
0.245,555
0.245,556
0.245,556
0.245,555
0.245,553
0.248,551
0.248,548
0.248,544
0.248,540
0.248,535
0.248,530
0.25,524
0.25,519
0.25,514
0.25,508
0.25,501
0.25,496
0.25,491
0.253,485
0.253,481
0.253,477
0.253,473
0.253,469
0.253,465
0.256,462
0.256,457
0.256,453
0.256,450
0.256,449
0.256,452
0.256,455
0.258,458
0.258,462
0.258,465
0.259,469
0.259,474
0.259,479
0.261,485
0.261,491
0.261,497
0.261,503
0.261,511
0.261,520
0.264,531
0.264,540
0.264,549
0.264,557
0.265,563
0.265,567
0.265,568
0.266,568
0.266,566
0.266,563
0.266,559
0.266,556
0.267,552
0.269,548
0.269,543
0.269,537
0.269,532
0.269,526
0.269,520
0.269,515
0.271,510
0.272,505
0.272,500
0.272,496
0.272,493
0.272,490
0.274,487
0.274,485
0.274,483
0.274,482
0.274,481
0.274,482
0.277,482
0.277,483
0.277,484
0.277,486
0.277,488
0.277,491
0.277,495
0.279,499
0.279,503
0.281,508
0.281,512
0.281,518
0.281,523
0.283,528
0.283,533
0.283,539
0.283,543
0.283,546
0.283,549
0.283,551
0.286,552
0.286,553
0.286,553
0.286,552
0.286,550
0.286,547
0.288,543
0.288,540
0.288,535
0.288,530
0.288,525
0.288,520
0.291,516
0.291,510
0.291,505
0.291,500
0.291,495
0.291,491
0.291,487
0.294,484
0.294,480
0.294,478
0.294,475
0.294,473
0.294,472
0.296,472
0.296,472
0.296,473
0.296,474
0.296,475
0.296,477
0.296,479
0.299,482
0.299,485
0.299,489
0.299,494
0.299,498
0.299,502
0.302,505
0.302,509
0.302,512
0.302,517
0.302,522
0.302,527
0.305,531
0.305,534
0.305,537
0.305,539
0.305,540
0.305,541
0.305,540
0.308,537
0.308,534
0.308,530
0.308,527
0.308,522
0.308,518
0.31,513
0.31,507
0.31,501
0.31,496
0.31,492
0.31,488
0.31,485
0.313,482
0.313,479
0.313,476
0.313,474
0.313,472
0.313,469
0.316,467
0.316,465
0.316,465
0.316,465
0.316,466
0.316,467
0.318,468
0.318,471
0.318,473
0.318,477
0.318,481
0.318,486
0.319,490
0.321,494
0.321,498
0.321,502
0.321,506
0.321,510
0.321,514
0.324,516
0.324,518
0.324,520
0.324,521
0.324,521
0.324,520
0.324,519
0.327,516
0.327,512
0.327,508
0.327,507
0.327,508
0.327,511
0.328,514
0.329,516
0.329,516
0.329,514
0.329,511
0.329,507
0.331,503
0.331,499
0.331,496
0.331,492
0.331,488
0.332,484
0.332,481
0.334,478
0.334,475
0.334,474
0.334,473
0.334,472
0.334,472
0.336,473
0.337,474
0.337,476
0.337,477
0.337,479
0.337,482
0.337,485
0.34,489
0.34,494
0.34,498
0.341,504
0.341,509
0.341,515
0.343,520
0.343,526
0.343,530
0.343,534
0.343,538
0.344,541
0.346,543
0.346,544
0.346,545
0.346,544
0.346,544
0.346,542
0.346,539
0.348,535
0.348,531
0.348,526
0.348,521
0.348,516
0.348,511
0.351,505
0.351,500
0.351,494
0.351,488
0.351,483
0.351,477
0.351,473
0.353,469
0.353,465
0.353,462
0.354,459
0.354,457
0.354,455
0.357,453
0.357,451
0.357,449
0.357,448
0.357,448
0.357,450
0.359,454
0.359,457
0.359,461
0.359,465
0.359,470
0.359,475
0.359,480
0.361,486
0.361,492
0.361,497
0.361,503
0.362,508
0.362,514
0.364,521
0.364,527
0.364,533
0.364,538
0.364,542
0.365,545
0.365,548
0.367,550
0.367,550
0.367,548
0.367,545
0.367,541
0.367,537
0.369,532
0.37,527
0.37,522
0.37,518
0.37,513
0.37,508
0.372,503
0.372,498
0.372,495
0.372,491
0.373,488
0.373,486
0.373,483
0.375,481
0.375,480
0.375,478
0.375,478
0.375,478
0.375,478
0.378,478
0.378,478
0.378,480
0.378,482
0.378,484
0.378,488
0.378,492
0.381,496
0.381,502
0.381,507
0.382,512
0.382,517
0.382,522
0.384,527
0.384,532
0.384,535
0.384,539
0.384,542
0.384,544
0.386,544
0.386,544
0.386,544
0.386,544
0.386,543
0.386,541
0.386,537
0.389,533
0.389,529
0.389,524
0.389,519
0.389,514
0.389,510
0.391,505
0.391,501
0.391,496
0.391,493
0.392,488
0.392,485
0.392,482
0.395,480
0.395,477
0.395,475
0.395,474
0.395,473
0.395,472
0.397,472
0.397,472
0.397,472
0.397,472
0.397,472
0.397,473
0.4,474
0.4,475
0.4,477
0.4,480
0.4,483
0.4,487
0.4,492
0.403,496
0.403,501
0.403,505
0.403,508
0.403,511
0.403,513
0.406,516
0.406,525
0.406,534
0.406,540
0.406,543
0.406,543
0.406,542
0.408,538
0.408,533
0.409,526
0.409,519
0.409,513
0.409,508
0.411,505
0.411,502
0.411,499
0.411,495
0.411,494
0.411,493
0.414,492
0.414,491
0.414,489
0.414,487
0.414,486
0.414,485
0.414,484
0.416,484
0.416,483
0.416,483
0.416,484
0.416,486
0.416,487
0.419,489
0.419,492
0.419,495
0.419,499
0.419,503
0.419,509
0.419,514
0.422,519
0.422,524
0.422,528
0.422,534
0.422,538
0.422,542
0.425,545
0.425,548
0.425,549
0.425,550
0.426,550
0.426,549
0.427,548
0.427,545
0.427,542
0.427,539
0.427,534
0.428,529
0.428,523
0.429,518
0.429,513
0.43,510
0.43,507
0.43,504
0.43,501
0.432,497
0.432,493
0.432,488
0.432,483
0.432,479
0.433,476
0.433,472
0.435,470
0.435,468
0.435,467
0.435,467
0.436,468
0.436,468
0.438,470
0.438,472
0.438,474
0.438,478
0.438,483
0.438,488
0.44,495
0.44,500
0.44,505
0.441,509
0.441,514
0.441,518
0.441,522
0.443,526
0.443,531
0.443,534
0.443,538
0.443,542
0.443,544
0.446,546
0.446,547
0.446,547
0.446,546
0.446,544
0.446,542
0.446,539
0.449,534
0.449,529
0.449,525
0.449,520
0.449,514
0.449,509
0.451,503
0.451,498
0.451,493
0.452,488
0.452,483
0.452,478
0.455,474
0.455,469
0.455,466
0.455,462
0.455,460
0.455,458
0.455,457
0.457,459
0.457,461
0.457,464
0.457,468
0.458,471
0.458,475
0.46,479
0.46,484
0.46,489
0.46,494
0.46,500
0.46,506
0.46,512
0.463,519
0.463,526
0.463,532
0.463,537
0.463,540
0.464,543
0.465,545
0.465,546
0.465,546
0.465,546
0.465,545
0.466,544
0.468,542
0.468,538
0.468,535
0.468,531
0.469,526
0.469,522
0.469,518
0.471,513
0.471,510
0.471,506
0.471,502
0.471,499
0.471,495
0.474,492
0.474,488
0.474,483
0.474,479
0.474,475
0.474,473
0.474,472
0.476,471
0.476,471
0.476,472
0.476,473
0.476,474
0.476,476
0.478,478
0.478,480
0.478,484
0.478,487
0.478,491
0.478,495
0.482,499
0.482,503
0.482,507
0.482,511
0.482,515
0.482,519
0.483,522
0.484,524
0.484,526
0.484,527
0.484,527
0.484,527
0.484,527
0.487,527
0.487,528
0.487,527
0.487,525
0.487,520
0.487,515
0.487,511
0.49,508
0.49,510
0.49,512
0.49,513
0.49,511
0.49,508
0.492,504
0.492,500
0.492,495
0.492,491
0.492,488
0.492,485
0.495,483
0.495,480
0.495,479
0.495,478
0.495,478
0.495,479
0.495,481
0.497,484
0.498,486
0.498,489
0.498,491
0.498,494
0.498,497
0.501,501
0.501,506
0.501,510
0.501,515
0.501,520
0.501,525
0.502,530
0.504,534
0.504,538
0.504,541
0.504,544
0.504,547
0.504,549
0.506,551
0.506,551
0.506,551
0.506,550
0.506,547
0.506,544
0.508,541
0.508,536
0.509,532
0.509,527
0.509,521
0.509,516
0.509,510
0.512,504
0.512,497
0.512,491
0.512,486
0.512,482
0.512,477
0.514,474
0.514,470
0.514,468
0.514,465
0.515,464
0.515,462
0.515,461
0.517,460
0.517,460
0.517,463
0.517,467
0.517,471
0.517,476
0.519,481
0.52,487
0.52,493
0.52,500
0.52,506
0.52,511
0.522,516
0.522,520
0.522,524
0.522,528
0.523,531
0.523,534
0.523,536
0.525,539
0.525,541
0.525,542
0.525,542
0.525,541
0.525,540
0.527,538
0.527,535
0.527,531
0.528,527
0.528,522
0.528,518
0.528,514
0.53,511
0.53,508
0.53,505
0.53,502
0.53,498
0.53,495
0.533,491
0.533,489
0.533,486
0.533,484
0.533,482
0.533,480
0.535,480
0.535,479
0.535,479
0.536,480
0.536,482
0.536,484
0.536,486
0.538,489
0.538,492
0.538,495
0.538,498
0.538,502
0.539,507
0.541,512
0.541,518
0.541,524
0.541,530
0.541,535
0.541,540
0.541,544
0.543,548
0.543,551
0.543,554
0.543,556
0.543,557
0.545,556
0.547,555
0.547,553
0.547,551
0.547,548
0.547,544
0.547,539
0.549,534
0.549,528
0.55,523
0.55,518
0.55,512
0.55,507
0.55,503
0.552,498
0.552,494
0.552,490
0.552,487
0.553,484
0.553,482
0.555,480
0.555,478
0.555,477
0.555,477
0.555,476
0.555,477
0.555,477
0.558,478
0.558,480
0.558,482
0.558,485
0.558,488
0.558,492
0.56,496
0.56,500
0.561,505
0.561,511
0.561,516
0.561,522
0.563,527
0.563,531
0.563,535
0.563,539
0.563,543
0.564,545
0.564,547
0.566,548
0.566,549
0.566,549
0.566,547
0.566,545
0.566,542
0.568,539
0.569,534
0.569,528
0.569,523
0.569,517
0.569,512
0.569,506
0.571,501
0.571,496
0.572,491
0.572,487
0.572,482
0.572,478
0.574,474
0.574,471
0.574,469
0.574,467
0.574,465
0.575,464
0.577,464
0.577,465
0.577,468
0.577,471
0.577,474
0.577,477
0.577,479
0.579,483
0.58,486
0.58,489
0.58,492
0.58,495
0.58,499
0.582,503
0.582,511
0.582,519
0.582,527
0.583,533
0.583,538
0.583,542
0.585,545
0.585,547
0.585,549
0.585,549
0.585,548
0.585,547
0.587,546
0.588,543
0.588,541
0.588,537
0.588,533
0.588,528
0.59,524
0.59,519
0.59,515
0.591,510
0.591,505
0.591,500
0.591,495
0.593,491
0.593,488
0.593,485
0.593,482
0.593,480
0.594,477
0.596,475
0.596,474
0.596,472
0.596,471
0.596,471
0.596,470
0.596,470
0.599,470
0.599,472
0.599,477
0.599,481
0.599,486
0.599,491
0.601,496
0.601,502
0.601,507
0.601,512
0.601,517
0.601,521
0.604,526
0.604,530
0.604,535
0.604,540
0.604,548
0.604,555
0.604,559
0.606,561
0.606,561
0.606,559
0.606,557
0.607,553
0.607,549
0.61,545
0.61,541
0.61,537
0.61,532
0.61,526
0.61,519
0.61,512
0.612,506
0.612,500
0.612,495
0.612,490
0.612,486
0.612,483
0.615,480
0.615,478
0.615,477
0.615,476
0.615,476
0.615,477
0.618,479
0.618,482
0.618,486
0.618,490
0.618,494
0.618,498
0.618,502
0.621,506
0.621,511
0.621,516
0.621,521
0.621,527
0.621,532
0.623,537
0.623,542
0.623,546
0.623,551
0.623,554
0.624,557
0.624,559
0.625,560
0.625,561
0.626,560
0.626,558
0.626,556
0.626,553
0.628,550
0.628,545
0.628,541
0.628,535
0.628,530
0.628,526
0.631,521
0.631,515
0.631,509
0.631,503
0.631,498
0.631,493
0.631,487
0.633,482
0.633,478
0.634,474
0.634,472
0.634,471
0.634,471
0.636,472
0.636,473
0.636,475
0.636,477
0.637,480
0.637,483
0.637,487
0.639,491
0.639,496
0.639,502
0.639,510
0.639,519
0.639,525
0.642,531
0.642,536
0.642,539
0.642,543
0.642,545
0.642,547
0.645,548
0.645,548
0.645,548
0.645,547
0.645,547
0.645,547
0.645,547
0.648,546
0.648,545
0.648,543
0.648,539
0.648,536
0.648,534
0.65,533
0.65,533
0.65,531
0.65,528
0.65,524
0.65,520
0.65,516
0.652,511
0.652,507
0.652,503
0.653,499
0.653,496
0.653,494
0.656,492
0.656,490
0.656,489
0.656,488
0.656,488
0.656,488
0.658,490
0.658,491
0.658,493
0.658,496
0.658,499
0.658,503
0.659,508
0.661,513
0.661,517
0.661,523
0.661,527
0.661,533
0.661,538
0.664,543
0.664,547
0.664,551
0.664,554
0.664,557
0.664,559
0.665,560
0.667,560
0.667,559
0.667,558
0.667,556
0.667,553
0.667,549
0.669,544
0.669,539
0.669,533
0.669,528
0.671,523
0.671,518
0.672,515
0.672,511
0.672,507
0.672,503
0.672,500
0.672,496
0.673,493
0.675,490
0.675,487
0.675,485
0.675,484
0.676,483
0.676,483
0.678,483
0.678,485
0.678,487
0.678,488
0.678,491
0.679,494
0.679,497
0.68,502
0.68,507
0.68,512
0.68,517
0.68,522
0.68,527
0.683,533
0.683,538
0.683,544
0.683,548
0.683,552
0.683,555
0.685,557
0.685,559
0.685,559
0.685,559
0.685,558
0.685,556
0.685,554
0.689,551
0.689,547
0.689,543
0.689,538
0.689,533
0.689,528
0.691,524
0.691,520
0.691,514
0.691,509
0.691,505
0.692,501
0.692,497
0.694,494
0.694,491
0.694,488
0.694,486
0.694,486
0.694,485
0.697,485
0.697,485
0.697,485
0.697,485
0.697,487
0.697,490
0.699,493
0.699,497
0.699,501
0.699,505
0.7,510
0.7,515
0.7,521
0.702,526
0.702,531
0.702,537
0.702,542
0.703,547
0.703,552
0.705,557
0.705,561
0.705,565
0.705,567
0.705,569
0.705,569
0.706,568
0.708,566
0.708,564
0.708,560
0.708,556
0.708,551
0.708,545
0.71,540
0.71,533
0.71,527
0.71,522
0.71,516
0.71,510
0.713,504
0.713,498
0.713,493
0.713,489
0.713,485
0.713,482
0.713,478
0.716,476
0.716,474
0.716,475
0.716,477
0.717,479
0.717,481
0.718,484
0.718,487
0.719,490
0.719,494
0.719,499
0.719,504
0.719,509
0.721,515
0.721,521
0.721,528
0.721,534
0.721,540
0.722,545
0.724,550
0.724,553
0.724,556
0.724,559
0.724,559
0.724,560
0.727,561
0.727,562
0.727,562
0.727,561
0.727,559
0.727,556
0.727,552
0.729,548
0.729,542
0.729,537
0.73,531
0.73,526
0.73,521
0.732,517
0.732,512
0.732,507
0.733,503
0.733,498
0.733,493
0.733,489
0.735,484
0.735,480
0.735,478
0.735,475
0.735,472
0.735,470
0.738,469
0.738,469
0.738,469
0.738,469
0.738,469
0.738,469
0.74,470
0.74,474
0.74,485
0.74,498
0.74,511
0.74,520
0.74,528
0.743,536
0.743,545
0.743,555
0.743,564
0.743,571
0.743,577
0.746,581
0.746,584
0.746,585
0.746,584
0.746,583
0.747,581
0.747,578
0.748,575
0.748,570
0.748,565
0.748,560
0.748,554
0.748,548
0.751,542
0.751,536
0.751,531
0.751,526
0.751,520
0.751,515
0.754,510
0.754,505
0.754,501
0.754,497
0.754,494
0.754,491
0.754,488
0.757,487
0.757,486
0.757,486
0.757,486
0.757,487
0.757,487
0.759,489
0.759,491
0.759,494
0.759,498
0.759,501
0.759,505
0.759,510
0.762,516
0.762,521
0.762,525
0.762,531
0.762,536
0.763,540
0.765,545
0.765,548
0.765,551
0.765,553
0.765,553
0.765,553
0.767,553
0.767,551
0.767,548
0.768,545
0.768,541
0.768,537
0.768,532
0.77,527
0.77,522
0.77,517
0.77,512
0.77,507
0.771,502
0.773,498
0.773,494
0.773,489
0.773,485
0.773,482
0.773,479
0.773,477
0.776,475
0.776,474
0.776,473
0.776,473
0.776,473
0.776,474
0.778,476
0.778,478
0.778,480
0.779,482
0.779,486
0.779,490
0.781,495
0.781,500
0.781,505
0.781,511
0.781,516
0.781,521
0.782,526
0.784,531
0.784,536
0.784,540
0.784,544
0.784,547
0.784,548
0.786,549
0.786,550
0.786,549
0.786,548
0.786,547
0.786,544
0.788,542
0.789,539
0.789,535
0.789,531
0.789,527
0.789,523
0.789,519
0.792,515
0.792,512
0.792,508
0.792,505
0.793,501
0.793,499
0.795,496
0.795,494
0.795,492
0.795,490
0.795,489
0.795,488
0.796,488
0.797,489
0.797,490
0.797,491
0.797,494
0.797,496
0.797,499
0.8,503
0.8,507
0.8,512
0.8,516
0.8,522
0.8,526
0.801,531
0.803,536
0.803,541
0.803,546
0.803,550
0.803,553
0.804,556
0.806,559
0.806,561
0.806,563
0.806,563
0.806,563
0.806,561
0.808,559
0.808,557
0.809,554
0.809,551
0.809,547
0.809,542
0.809,537
0.811,531
0.811,526
0.811,520
0.811,515
0.811,510
0.811,507
0.814,503
0.814,502
0.814,501
0.814,501
0.814,502
0.814,502
0.814,503
0.816,504
0.816,506
0.816,508
0.816,510
0.816,512
0.816,514
0.819,516
0.819,518
0.819,520
0.819,522
0.819,525
0.819,529
0.821,533
0.821,537
0.822,540
0.822,542
0.822,544
0.822,545
0.822,546
0.824,548
0.824,550
0.824,553
0.825,555
0.825,556
0.825,557
0.827,557
0.827,555
0.827,552
0.827,549
0.827,547
0.827,546
0.827,547
0.83,546
0.83,543
0.83,541
0.83,537
0.83,534
0.83,530
0.833,527
0.833,523
0.833,520
0.833,517
0.833,514
0.833,511
0.835,508
0.835,505
0.835,502
0.835,500
0.835,498
0.835,497
0.836,497
0.838,497
0.838,497
0.838,497
0.838,498
0.838,500
0.838,502
0.841,506
0.841,510
0.841,514
0.841,519
0.841,524
0.842,528
0.842,532
0.843,535
0.843,538
0.844,540
0.844,542
0.844,545
0.844,552
0.846,559
0.846,563
0.846,565
0.846,564
0.846,562
0.846,559
0.848,556
0.848,551
0.848,546
0.848,540
0.848,534
0.849,529
0.849,524
0.852,519
0.852,514
0.852,509
0.852,504
0.852,500
0.852,496
0.854,493
0.854,490
0.854,487
0.854,486
0.854,484
0.854,484
0.855,484
0.857,485
0.857,486
0.857,488
0.857,491
0.857,494
0.857,497
0.86,501
0.86,505
0.86,509
0.86,514
0.86,518
0.86,523
0.863,529
0.863,533
0.863,537
0.863,542
0.863,546
0.863,550
0.863,553
0.865,556
0.865,557
0.865,558
0.865,559
0.865,559
0.865,558
0.868,556
0.868,553
0.868,549
0.868,545
0.868,540
0.868,535
0.868,530
0.871,525
0.871,520
0.871,515
0.871,510
0.871,506
0.871,502
0.874,498
0.874,495
0.874,492
0.874,490
0.874,488
0.874,486
0.876,485
0.876,483
0.876,483
0.876,483
0.876,484
0.876,485
0.876,487
0.879,489
0.879,492
0.879,495
0.879,500
0.879,504
0.879,509
0.882,515
0.882,521
0.882,526
0.882,531
0.882,535
0.882,540
0.882,544
0.884,548
0.884,552
0.884,554
0.884,556
0.884,557
0.884,558
0.886,557
0.887,556
0.887,554
0.887,550
0.887,547
0.887,542
0.889,538
0.889,533
0.889,529
0.89,527
0.89,526
0.89,523
0.89,520
0.892,516
0.892,512
0.892,507
0.892,504
0.892,500
0.892,497
0.895,494
0.895,492
0.895,489
0.895,488
0.895,487
0.895,485
0.895,485
0.897,486
0.897,487
0.898,490
0.898,493
0.898,497
0.898,502
0.9,506
0.9,511
0.9,516
0.9,521
0.9,527
0.902,533
0.904,540
0.904,547
0.904,554
0.904,560
0.904,565
0.904,569
0.904,572
0.906,574
0.906,575
0.906,574
0.906,573
0.906,571
0.906,568
0.908,565
0.908,560
0.908,555
0.908,548
0.909,541
0.909,534
0.909,527
0.912,521
0.912,515
0.912,509
0.912,505
0.912,500
0.912,496
0.914,492
0.915,488
0.915,485
0.915,483
0.915,481
0.915,481
0.917,482
0.917,485
0.917,490
0.917,495
0.917,501
0.917,506
0.918,511
0.92,516
0.92,522
0.92,528
0.92,534
0.92,540
0.92,547
0.922,553
0.922,559
0.922,565
0.922,570
0.922,574
0.922,577
0.923,580
0.925,583
0.925,585
0.925,586
0.925,587
0.925,586
0.926,585
0.928,583
0.928,578
0.928,574
0.928,567
0.928,561
0.928,554
0.93,548
0.93,541
0.93,535
0.931,529
0.931,523
0.931,517
0.931,511
0.933,505
0.933,500
0.933,497
0.933,496
0.933,496
0.933,496
0.936,496
0.936,497
0.936,498
0.936,499
0.936,501
0.936,503
0.936,504
0.939,507
0.939,509
0.939,512
0.939,516
0.939,521
0.939,527
0.942,533
0.942,539
0.942,546
0.942,552
0.942,559
0.942,564
0.944,569
0.944,572
0.944,575
0.944,576
0.944,577
0.944,577
0.944,576
0.947,574
0.947,571
0.947,568
0.947,564
0.947,559
0.948,554
0.95,547
0.95,540
0.95,532
0.95,526
0.95,520
0.95,518
0.95,518
0.952,517
0.952,515
0.952,512
0.952,509
0.952,505
0.952,503
0.955,500
0.955,498
0.955,497
0.955,496
0.955,497
0.955,498
0.958,500
0.958,501
0.958,503
0.958,505
0.958,507
0.958,510
0.958,513
0.96,518
0.96,523
0.96,528
0.96,533
0.96,538
0.96,543
0.963,548
0.963,554
0.963,559
0.963,564
0.963,569
0.963,572
0.963,575
0.966,576
0.966,576
0.966,575
0.966,573
0.966,570
0.966,565
0.969,561
0.969,555
0.969,549
0.969,543
0.969,536
0.969,529
0.972,523
0.972,516
0.972,510
0.972,504
0.972,498
0.972,492
0.972,487
0.974,483
0.974,481
0.974,480
0.974,480
0.974,479
0.975,477
0.977,476
0.977,476
0.977,476
0.977,477
0.977,479
0.977,481
0.977,483
0.98,486
0.98,491
0.98,496
0.98,504
0.98,513
0.981,522
0.982,531
0.982,539
0.982,546
0.982,552
0.982,557
0.982,562
0.985,567
0.985,570
0.985,573
0.985,574
0.985,575
0.985,574
0.985,573
0.987,570
0.987,567
0.987,563
0.988,558
0.988,553
0.988,548
0.99,543
0.99,537
0.99,531
0.99,525
0.99,520
0.99,515
0.99,510
0.993,505
0.993,501
0.993,497
0.993,492
0.993,489
0.993,485
0.995,483
0.996,481
0.996,481
0.996,480
0.996,480
0.996,481
0.998,483
0.998,484
0.998,486
0.998,488
0.999,491
0.999,496
0.999,501
1.001,507
1.001,513
1.001,519
1.001,526
1.001,531
1.001,537
1.004,543
1.004,549
1.004,554
1.004,558
1.004,561
1.004,564
1.004,566
1.006,567
1.006,566
1.007,564
1.007,560
1.007,554
1.007,549
1.009,543
1.009,537
1.009,532
1.009,526
1.009,521
1.009,515
1.012,510
1.012,505
1.012,500
1.012,495
1.012,491
1.012,487
1.012,484
1.015,483
1.015,482
1.015,483
1.015,483
1.015,484
1.015,484
1.018,484
1.018,484
1.018,485
1.018,486
1.018,488
1.018,491
1.018,493
1.02,496
1.02,500
1.02,507
1.02,516
1.02,526
1.021,535
1.023,543
1.023,550
1.023,556
1.024,562
1.024,568
1.024,574
1.026,578
1.026,580
1.026,582
1.026,582
1.026,581
1.026,579
1.026,576
1.029,572
1.029,567
1.029,562
1.029,556
1.029,550
1.029,544
1.031,539
1.031,533
1.031,528
1.031,522
1.031,517
1.031,512
1.031,507
1.034,503
1.034,499
1.034,495
1.034,492
1.034,489
1.034,487
1.037,486
1.037,485
1.037,485
1.037,486
1.037,487
1.037,488
1.039,491
1.039,494
1.04,497
1.04,502
1.04,506
1.04,511
1.04,516
1.042,521
1.042,526
1.043,530
1.043,535
1.043,539
1.043,543
1.045,546
1.045,549
1.045,551
1.045,552
1.045,552
1.045,552
1.045,551
1.048,549
1.048,547
1.048,543
1.048,539
1.048,534
1.048,527
1.05,521
1.05,516
1.05,510
1.05,504
1.051,498
1.051,493
1.053,488
1.053,483
1.053,478
1.053,473
1.053,468
1.053,463
1.053,459
1.056,457
1.056,458
1.056,464
1.056,468
1.056,471
1.056,473
1.059,476
1.059,479
1.059,484
1.059,489
1.059,494
1.059,499
1.059,503
1.061,508
1.061,513
1.061,518
1.061,523
1.061,528
1.061,533
1.064,537
1.064,541
1.064,544
1.064,547
1.064,549
1.064,550
1.067,550
1.067,549
1.067,547
1.067,544
1.067,541
1.067,537
1.068,533
1.07,529
1.07,524
1.07,520
1.07,515
1.07,511
1.07,506
1.072,501
1.072,496
1.072,491
1.072,486
1.072,483
1.072,480
1.073,477
1.075,474
1.076,472
1.076,469
1.076,467
1.076,466
1.076,464
1.078,464
1.078,465
1.078,466
1.078,467
1.079,469
1.079,472
1.08,475
1.08,479
1.08,483
1.08,488
1.08,494
1.08,499
1.081,505
1.083,510
1.083,515
1.083,520
1.083,525
1.083,529
1.083,533
1.085,535
1.085,537
1.085,539
1.086,539
1.086,537
1.086,536
1.086,534
1.088,531
1.088,527
1.088,523
1.088,518
1.088,513
1.088,508
1.091,503
1.091,497
1.092,492
1.092,487
1.092,481
1.092,476
1.094,471
1.094,466
1.094,463
1.094,460
1.094,457
1.094,456
1.095,453
1.097,452
1.097,451
1.097,450
1.097,450
1.097,451
1.097,453
1.099,455
1.099,458
1.099,461
1.099,464
1.099,468
1.1,472
1.1,475
1.102,479
1.102,482
1.102,486
1.102,490
1.102,495
1.102,499
1.104,504
1.105,508
1.105,512
1.105,517
1.105,519
1.105,520
1.107,520
1.107,518
1.107,518
1.107,519
1.108,522
1.108,523
1.108,523
1.11,521
1.11,518
1.11,515
1.11,511
1.11,508
1.11,504
1.113,500
1.113,497
1.113,493
1.113,490
1.113,487
1.113,484
1.113,482
1.116,479
1.116,477
1.116,476
1.116,475
1.116,474
1.116,474
1.118,474
1.118,475
1.118,477
1.118,479
1.118,482
1.119,485
1.121,489
1.121,493
1.121,498
1.121,503
1.121,509
1.121,514
1.121,520
1.124,525
1.124,529
1.124,534
1.124,537
1.124,540
1.124,542
1.127,543
1.127,543
1.127,543
1.127,541
1.127,539
1.127,536
1.127,533
1.129,528
1.129,523
1.129,517
1.129,511
1.129,504
1.13,498
1.132,492
1.132,485
1.132,479
1.132,473
1.132,468
1.132,463
1.135,459
1.135,456
1.135,453
1.135,451
1.135,450
1.136,449
1.136,450
1.137,453
1.137,457
1.137,462
1.137,466
1.137,469
1.137,471
1.139,472
1.139,473
1.139,475
1.14,478
1.14,482
1.14,486
1.14,491
1.142,495
1.142,499
1.142,502
1.142,506
1.142,510
1.142,514
1.145,517
1.145,520
1.145,523
1.145,529
1.145,535
1.145,537
1.147,538
1.147,535
1.147,531
1.147,526
1.148,520
1.148,514
1.148,508
1.15,502
1.15,495
1.15,489
1.15,484
1.15,479
1.15,476
1.153,472
1.153,469
1.153,466
1.153,464
1.153,462
1.153,461
1.153,461
1.156,460
1.156,460
1.156,461
1.156,463
1.156,464
1.156,466
1.159,469
1.159,472
1.159,475
1.159,479
1.159,483
1.159,489
1.162,495
1.162,501
1.162,506
1.162,512
1.162,517
1.162,522
1.163,527
1.164,532
1.164,535
1.164,538
1.164,540
1.164,542
1.164,542
1.167,542
1.167,541
1.167,538
1.167,534
1.167,530
1.167,527
1.167,523
1.17,518
1.17,514
1.17,510
1.17,505
1.17,500
1.17,495
1.173,491
1.173,487
1.173,483
1.173,479
1.173,475
1.173,472
1.175,469
1.176,467
1.176,465
1.176,465
1.176,465
1.176,466
1.176,468
1.178,470
1.178,473
1.178,476
1.178,480
1.178,484
1.178,490
1.18,495
1.181,501
1.181,508
1.181,514
1.181,520
1.181,527
1.181,533
1.184,539
1.184,544
1.184,549
1.184,554
1.184,557
1.184,560
1.186,562
1.186,562
1.186,562
1.186,561
1.186,558
1.186,554
1.189,551
1.189,545
1.189,539
1.189,533
1.189,528
1.189,523
1.189,518
1.192,512
1.192,506
1.192,501
1.193,496
1.193,493
1.193,492
1.195,492
1.195,493
1.195,494
1.195,494
1.195,493
1.195,492
1.195,490
1.197,489
1.197,488
1.197,488
1.197,489
1.197,491
1.198,492
1.199,495
1.199,498
1.2,502
1.2,507
1.2,512
1.2,518
1.202,524
1.202,529
1.202,534
1.202,540
1.202,546
1.202,551
1.203,556
1.205,561
1.205,565
1.205,568
1.205,571
1.205,574
1.205,576
1.207,577
1.207,574
1.207,571
1.208,565
1.208,560
1.208,555
1.208,551
1.211,546
1.211,542
1.211,536
1.211,529
1.211,523
1.211,519
1.214,515
1.214,512
1.214,508
1.214,505
1.214,503
1.214,500
1.216,499
1.216,498
1.216,497
1.216,497
1.217,498
1.217,498
1.217,500
1.219,502
1.219,504
1.219,507
1.219,511
1.219,516
1.219,521
1.222,527
1.222,532
1.222,538
1.222,543
1.222,548
1.222,553
1.222,558
1.224,562
1.225,565
1.225,569
1.225,572
1.225,574
1.225,574
1.227,573
1.227,572
1.227,569
1.227,567
1.227,563
1.228,559
1.23,554
1.23,548
1.23,543
1.23,537
1.23,532
1.23,527
1.23,522
1.233,517
1.233,513
1.233,508
1.233,505
1.233,501
1.233,499
1.235,496
1.235,495
1.235,493
1.235,491
1.235,489
1.235,488
1.235,486
1.238,486
1.238,486
1.238,487
1.238,488
1.238,489
1.238,492
1.241,495
1.241,498
1.241,503
1.241,507
1.242,511
1.242,515
1.243,519
1.243,525
1.243,534
1.243,546
1.243,557
1.243,567
1.243,574
1.246,580
1.246,584
1.246,586
1.246,586
1.247,584
1.247,582
1.249,578
1.249,574
1.249,569
1.249,564
1.249,559
1.249,554
1.249,549
1.252,543
1.252,538
1.252,532
1.252,527
1.252,522
1.252,518
1.254,514
1.254,513
1.254,511
1.254,510
1.254,510
1.254,509
1.257,510
1.257,510
1.257,510
1.257,512
1.258,513
1.258,516
1.258,519
1.26,522
1.26,526
1.26,530
1.26,536
1.26,541
1.26,548
1.263,553
1.263,559
1.263,564
1.263,570
1.263,574
1.263,577
1.263,579
1.265,581
1.265,581
1.265,582
1.265,581
1.265,580
1.265,577
1.268,574
1.268,570
1.268,566
1.268,561
1.268,555
1.268,550
1.271,544
1.271,538
1.271,532
1.271,525
1.271,518
1.271,512
1.272,509
1.273,507
1.274,507
1.274,506
1.274,505
1.274,503
1.274,501
1.276,500
1.276,498
1.277,497
1.277,498
1.277,501
1.277,506
1.278,512
1.279,518
1.279,524
1.279,530
1.279,535
1.28,540
1.28,546
1.281,551
1.282,558
1.282,564
1.282,570
1.282,575
1.282,581
1.284,586
1.284,591
1.284,595
1.284,598
1.285,600
1.285,600
1.285,600
1.287,600
1.287,598
1.287,595
1.287,591
1.287,587
1.287,582
1.29,577
1.29,572
1.29,566
1.29,559
1.29,553
1.29,546
1.29,539
1.292,532
1.292,525
1.292,519
1.292,514
1.292,509
1.292,505
1.295,502
1.295,499
1.295,497
1.295,496
1.295,495
1.295,495
1.298,496
1.298,497
1.298,500
1.298,502
1.298,506
1.298,510
1.298,515
1.301,521
1.301,527
1.301,533
1.301,539
1.301,546
1.301,552
1.303,557
1.303,563
1.303,568
1.304,572
1.304,575
1.304,578
1.304,582
1.306,585
1.306,587
1.306,588
1.306,587
1.306,585
1.307,582
1.309,579
1.309,574
1.309,568
1.309,562
1.309,556
1.31,550
1.312,544
1.312,538
1.312,532
1.312,527
1.312,522
1.312,516
1.313,511
1.314,507
1.314,503
1.314,501
1.314,498
1.314,497
1.314,496
1.317,496
1.317,497
1.317,498
1.317,499
1.317,500
1.317,502
1.318,505
1.319,508
1.319,512
1.32,517
1.32,522
1.32,527
1.32,532
1.323,538
1.323,543
1.323,549
1.323,554
1.323,559
1.323,564
1.325,568
1.326,571
1.326,573
1.326,575
1.326,576
1.327,576
1.327,575
1.328,572
1.328,569
1.328,565
1.328,561
1.329,556
1.329,550
1.331,544
1.331,539
1.331,532
1.331,527
1.331,521
1.331,516
1.332,510
1.333,505
1.333,500
1.333,495
1.333,491
1.333,487
1.333,483
1.336,480
1.336,478
1.336,476
1.336,475
1.336,475
1.337,476
1.339,477
1.339,479
1.339,482
1.339,485
1.339,489
1.339,493
1.34,498
1.342,504
1.342,510
1.343,516
1.343,522
1.343,528
1.343,535
1.344,542
1.344,548
1.344,553
1.344,556
1.344,559
1.344,561
1.345,562
1.347,563
1.347,561
1.347,559
1.347,556
1.347,553
1.347,548
1.35,542
1.35,536
1.35,530
1.35,524
1.35,518
1.35,512
1.352,506
1.352,500
1.352,494
1.352,488
1.352,483
1.352,478
1.353,474
1.355,470
1.355,466
1.355,463
1.355,460
1.356,459
1.356,457
1.358,456
1.358,456
1.358,457
1.358,459
1.358,462
1.358,467
1.358,471
1.361,477
1.361,483
1.361,489
1.361,496
1.361,502
1.361,508
1.363,515
1.363,523
1.363,530
1.363,537
1.363,542
1.363,547
1.366,549
1.366,551
1.366,552
1.366,552
1.366,550
1.366,548
1.366,545
1.369,540
1.369,535
1.369,529
1.369,521
1.369,514
1.369,507
1.371,501
1.371,497
1.371,494
1.372,491
1.372,487
1.372,483
1.372,478
1.374,474
1.374,470
1.374,466
1.374,463
1.374,461
1.374,459
1.377,458
1.377,457
1.377,457
1.377,458
1.377,460
1.377,465
1.379,470
1.379,474
1.38,478
1.38,483
1.38,487
1.38,492
1.38,497
1.382,502
1.382,507
1.382,511
1.382,516
1.382,520
1.383,524
1.385,528
1.385,531
1.385,534
1.385,536
1.385,537
1.385,536
1.385,535
1.388,533
1.388,531
1.388,527
1.388,523
1.388,517
1.388,512
1.39,507
1.39,501
1.39,495
1.39,489
1.39,482
1.39,476
1.393,468
1.393,459
1.393,451
1.393,443
1.393,436
1.394,430
1.394,425
1.396,420
1.396,416
1.396,413
1.396,411
1.397,409
1.397,409
1.399,409
1.399,410
1.399,412
1.399,415
1.399,419
1.399,426
1.399,437
1.401,447
1.401,457
1.401,466
1.401,476
1.401,485
1.401,493
1.404,501
1.404,508
1.404,516
1.404,523
1.404,528
1.404,532
1.407,535
1.407,537
1.407,537
1.407,537
1.407,534
1.407,531
1.408,526
1.409,520
1.409,514
1.41,507
1.41,500
1.41,493
1.41,487
1.412,480
1.412,474
1.412,468
1.412,463
1.412,458
1.413,453
1.413,449
1.415,445
1.415,441
1.415,438
1.415,436
1.415,434
1.415,433
1.418,433
1.418,433
1.418,434
1.418,435
1.418,437
1.418,439
1.42,441
1.42,445
1.42,448
1.42,453
1.42,458
1.42,463
1.42,468
1.423,474
1.423,479
1.423,483
1.423,488
1.423,492
1.423,495
1.425,497
1.426,499
1.426,500
1.426,500
1.426,499
1.426,498
1.426,496
1.428,494
1.428,490
1.428,486
1.429,481
1.429,476
1.429,470
1.431,464
1.431,459
1.431,454
1.431,448
1.431,442
1.431,437
1.433,432
1.433,426
1.434,421
1.434,416
1.434,412
1.434,410
1.434,407
1.436,405
1.436,403
1.436,401
1.436,400
1.436,399
1.437,399
1.439,401
1.439,406
1.439,414
1.439,423
1.439,432
1.439,440
1.439,447
1.442,454
1.442,459
1.442,464
1.442,473
1.442,482
1.442,491
1.444,499
1.444,504
1.444,508
1.445,511
1.445,514
1.445,515
1.447,516
1.447,515
1.447,513
1.447,509
1.447,505
1.448,500
1.448,495
1.45,489
1.45,484
1.45,478
1.45,472
1.45,466
1.45,461
1.452,456
1.453,451
1.453,448
1.453,444
1.453,440
1.453,436
1.453,433
1.455,431
1.455,429
1.455,428
1.456,428
1.456,428
1.456,430
1.458,431
1.458,432
1.458,434
1.458,437
1.458,440
1.458,444
1.461,448
1.461,453
1.461,458
1.461,463
1.461,469
1.461,475
1.461,481
1.463,486
1.463,491
1.464,495
1.464,498
1.464,501
1.464,503
1.466,504
1.466,505
1.466,506
1.466,506
1.466,504
1.467,502
1.467,499
1.469,494
1.469,489
1.469,484
1.469,480
1.469,475
1.469,473
1.471,470
1.472,466
1.472,463
1.472,459
1.472,455
1.472,451
1.474,447
1.474,442
1.474,437
1.474,433
1.475,431
1.475,428
1.475,427
1.477,426
1.477,426
1.477,427
1.477,428
1.477,431
1.477,432
1.48,436
1.48,440
1.48,445
1.48,451
1.48,457
1.48,464
1.48,471
1.482,477
1.483,485
1.483,491
1.483,496
1.483,501
1.483,504
1.485,507
1.485,508
1.485,509
1.485,509
1.486,508
1.486,506
1.488,503
1.488,499
1.488,495
1.488,490
1.488,485
1.488,479
1.488,473
1.491,466
1.491,460
1.491,456
1.491,455
1.491,455
1.492,453
1.493,450
1.494,447
1.494,444
1.494,441
1.494,440
1.494,439
1.494,439
1.496,438
1.496,438
1.496,437
1.497,437
1.497,436
1.497,436
1.499,436
1.499,437
1.499,439
1.499,442
1.499,445
1.499,449
1.502,453
1.502,457
1.502,461
1.502,466
1.502,470
1.502,474
1.502,477
1.504,480
1.504,484
1.505,489
1.505,495
1.505,501
1.505,506
1.507,512
1.507,515
1.507,517
1.507,516
1.507,514
1.508,511
1.508,507
1.51,503
1.51,497
1.51,492
1.51,485
1.51,478
1.51,471
1.513,463
1.513,456
1.513,449
1.513,442
1.513,435
1.513,429
1.516,423
1.516,419
1.516,416
1.516,414
1.516,413
1.516,414
1.516,418
1.518,424
1.519,430
1.519,436
1.519,441
1.519,446
1.519,452
1.521,457
1.521,463
1.521,470
1.521,476
1.521,482
1.521,488
1.521,494
1.524,500
1.524,505
1.524,509
1.524,513
1.524,516
1.524,518
1.526,519
1.526,520
1.526,520
1.527,518
1.527,517
1.527,514
1.529,511
1.529,507
1.529,502
1.529,497
1.529,493
1.529,488
1.529,483
1.532,478
1.532,473
1.532,468
1.532,464
1.532,459
1.532,456
1.535,453
1.535,451
1.535,449
1.535,447
1.535,446
1.535,445
1.535,445
1.537,446
1.537,446
1.537,448
1.538,449
1.538,451
1.538,454
1.54,457
1.54,461
1.54,465
1.54,470
1.54,476
1.54,481
1.543,488
1.543,492
1.543,498
1.543,503
1.543,508
1.543,512
1.543,516
1.546,519
1.546,521
1.546,523
1.546,523
1.546,524
1.547,523
1.548,521
1.548,518
1.549,515
1.549,510
1.549,505
1.549,500
1.549,495
1.551,489
1.551,484
1.551,479
1.551,473
1.551,469
1.551,464
1.553,460
1.553,457
1.553,454
1.553,452
1.554,450
1.554,449
1.557,448
1.557,448
1.557,449
1.557,451
1.557,454
1.557,456
1.558,458
1.559,461
1.559,464
1.559,467
1.56,471
1.56,475
1.56,481
1.562,487
1.562,493
1.562,499
1.562,505
1.563,510
1.563,516
1.563,522
1.564,526
1.565,530
1.565,533
1.565,536
1.565,538
1.565,539
1.567,539
1.567,539
1.567,537
1.567,535
1.568,532
1.568,529
1.57,524
1.57,519
1.57,514
1.57,509
1.57,503
1.57,498
1.571,492
1.573,487
1.573,481
1.573,475
1.573,471
1.573,466
1.573,463
1.575,461
1.576,459
1.576,457
1.576,456
1.576,457
1.577,458
1.577,459
1.578,461
1.578,463
1.578,465
1.578,467
1.579,469
1.579,472
1.581,476
1.581,480
1.581,486
1.581,492
1.581,497
1.581,504
1.584,512
1.584,519
1.584,526
1.584,531
1.584,536
1.584,540
1.585,543
1.586,546
1.586,549
1.586,551
1.586,551
1.586,551
1.587,550
1.589,549
1.589,547
1.589,544
1.589,540
1.589,535
1.589,529
1.589,523
1.592,517
1.592,512
1.592,507
1.593,501
1.593,496
1.593,491
1.595,486
1.595,481
1.595,478
1.595,475
1.595,473
1.595,473
1.597,473
1.597,472
1.597,471
1.597,472
1.598,472
1.598,473
1.598,475
1.6,477
1.6,481
1.6,485
1.6,492
1.6,501
1.601,511
1.603,520
1.603,527
1.603,533
1.603,538
1.603,544
1.603,548
1.603,552
1.605,554
1.605,555
1.605,555
1.605,554
1.605,553
1.605,551
1.608,548
1.608,543
1.609,539
1.609,534
1.609,528
1.609,523
1.611,517
1.611,511
1.611,505
1.611,500
1.611,495
1.611,492
1.611,493
1.614,495
1.614,495
1.614,493
1.614,491
1.614,488
1.614,486
1.616,484
1.616,482
1.616,480
1.616,478
1.616,476
1.616,475
1.616,475
1.619,476
1.619,478
1.619,481
1.619,485
1.619,492
1.619,500
1.622,508
1.622,517
1.622,525
1.622,533
1.622,540
1.622,547
1.624,555
1.624,562
1.624,567
1.624,572
1.624,575
1.624,578
1.624,579
1.627,579
1.627,578
1.627,576
1.627,573
1.627,570
1.627,565
1.63,561
1.63,555
1.63,550
1.63,544
1.63,538
1.63,533
1.63,527
1.633,522
1.633,517
1.633,512
1.633,508
1.633,504
1.633,502
1.635,499
1.635,497
1.635,495
1.635,493
1.635,492
1.635,492
1.638,492
1.638,492
1.638,494
1.638,496
1.638,499
1.638,502
1.638,506
1.641,510
1.641,515
1.641,520
1.641,526
1.641,532
1.642,537
1.643,544
1.643,549
1.643,555
1.643,560
1.643,564
1.643,568
1.643,571
1.646,573
1.646,574
1.646,574
1.646,574
1.646,572
1.646,569
1.649,564
1.649,559
1.649,553
1.649,546
1.649,540
1.649,533
1.652,527
1.652,520
1.652,514
1.652,508
1.652,504
1.652,500
1.652,496
1.654,492
1.654,488
1.654,486
1.654,483
1.654,482
1.654,482
1.657,482
1.657,484
1.657,489
1.657,495
1.657,502
1.657,507
1.657,512
1.66,515
1.66,518
1.66,522
1.66,527
1.66,532
1.66,537
1.663,543
1.663,548
1.663,553
1.663,558
1.663,563
1.664,568
1.665,572
1.665,574
1.665,577
1.666,579
1.666,580
1.666,580
1.666,579
1.668,577
1.668,574
1.668,571
1.668,567
1.668,562
1.668,557
1.671,551
1.671,545
1.671,540
1.671,536
1.671,533
1.671,529
1.671,525
1.674,520
1.674,515
1.674,510
1.674,506
1.675,503
1.675,500
1.676,497
1.676,495
1.676,493
1.676,492
1.676,492
1.677,492
1.679,492
1.679,492
1.679,494
1.679,496
1.679,499
1.679,503
1.679,507
1.682,513
1.682,518
1.682,525
1.682,530
1.682,536
1.682,542
1.684,548
1.684,553
1.684,558
1.684,562
1.684,565
1.684,566
1.684,567
1.687,567
1.687,566
1.687,565
1.687,562
1.687,559
1.687,554
1.69,549
1.69,544
1.69,537
1.69,532
1.69,526
1.69,519
1.692,513
1.692,507
1.693,501
1.693,496
1.693,490
1.693,484
1.693,479
1.695,472
1.695,468
1.695,466
1.695,467
1.695,469
1.695,470
1.698,471
1.698,472
1.698,473
1.698,473
1.698,474
1.698,477
1.698,481
1.701,486
1.701,492
1.701,500
1.701,508
1.701,516
1.701,524
1.703,532
1.703,539
1.703,545
1.703,551
1.703,556
1.703,561
1.706,565
1.706,568
1.706,569
1.706,570
1.706,569
1.706,567
1.706,563
1.709,560
1.709,556
1.71,550
1.71,544
1.71,539
1.71,533
1.712,527
1.712,522
1.712,516
1.712,510
1.712,504
1.712,499
1.712,494
1.714,490
1.714,486
1.714,482
1.715,479
1.715,477
1.715,476
1.717,475
1.717,475
1.717,476
1.717,476
1.717,478
1.717,479
1.72,481
1.72,484
1.72,487
1.72,490
1.72,495
1.72,500
1.72,505
1.722,511
1.723,517
1.723,522
1.723,527
1.723,532
1.723,537
1.725,540
1.726,544
1.726,546
1.726,547
1.726,548
1.726,549
1.726,548
1.728,547
1.728,545
1.728,542
1.728,538
1.728,534
1.728,529
1.731,524
1.731,518
1.731,513
1.731,508
1.731,502
1.731,496
1.733,491
1.733,486
1.733,481
1.733,476
1.733,472
1.733,469
1.734,466
1.736,464
1.736,462
1.736,460
1.736,459
1.736,458
1.736,458
1.738,459
1.739,461
1.739,464
1.739,468
1.739,472
1.739,475
1.74,477
1.741,479
1.741,481
1.741,483
1.742,485
1.742,489
1.742,492
1.744,496
1.744,501
1.744,504
1.744,506
1.744,508
1.744,512
1.746,518
1.747,524
1.747,526
1.747,525
1.747,522
1.747,517
1.747,514
1.75,512
1.75,510
1.75,511
1.75,511
1.75,511
1.75,509
1.752,506
1.752,503
1.752,499
1.752,495
1.752,491
1.752,487
1.752,483
1.755,480
1.755,478
1.755,475
1.755,473
1.755,471
1.755,469
1.758,468
1.758,467
1.758,468
1.758,469
1.758,470
1.758,472
1.761,475
1.761,478
1.761,482
1.761,486
1.761,491
1.761,496
1.761,501
1.763,506
1.763,510
1.763,515
1.763,519
1.763,523
1.763,527
1.766,529
1.766,531
1.766,532
1.766,532
1.766,531
1.766,528
1.766,525
1.769,520
1.769,515
1.769,510
1.769,503
1.769,497
1.769,492
1.771,486
1.771,480
1.771,474
1.771,468
1.771,462
1.772,457
1.774,455
1.774,454
1.774,454
1.774,454
1.774,453
1.774,452
1.775,450
1.777,448
1.777,446
1.777,446
1.777,446
1.777,446
1.777,447
1.779,449
1.779,450
1.779,453
1.779,455
1.779,459
1.779,464
1.779,470
1.782,476
1.782,482
1.782,488
1.782,493
1.782,499
1.782,504
1.785,508
1.785,511
1.785,514
1.785,516
1.785,517
1.785,518
1.787,517
1.787,514
1.788,511
1.788,508
1.788,503
1.788,498
1.788,492
1.79,487
1.79,481
1.79,477
1.791,473
1.791,467
1.791,462
1.793,458
1.793,456
1.793,454
1.793,451
1.793,449
1.793,446
1.793,444
1.796,443
1.796,442
1.796,442
1.796,442
1.796,443
1.796,444
1.798,446
1.798,448
1.798,451
1.799,454
1.799,457
1.799,462
1.801,467
1.801,472
1.801,477
1.801,482
1.801,487
1.801,493
1.802,498
1.804,504
1.804,510
1.804,515
1.804,520
1.804,524
1.804,527
1.807,529
1.807,530
1.807,530
1.807,528
1.807,526
1.807,523
1.808,520
1.809,515
1.81,510
1.81,504
1.81,499
1.81,494
1.81,488
1.812,483
1.812,478
1.812,473
1.812,469
1.812,465
1.812,461
1.815,458
1.815,454
1.815,452
1.815,450
1.815,448
1.815,448
1.816,448
1.818,448
1.818,449
1.818,449
1.818,451
1.818,453
1.818,455
1.82,458
1.82,462
1.82,466
1.82,471
1.82,476
1.82,481
1.821,487
1.823,493
1.823,499
1.823,504
1.823,510
1.823,514
1.823,518
1.826,521
1.826,523
1.826,525
1.826,525
1.826,525
1.827,524
1.829,522
1.829,519
1.829,515
1.829,511
1.829,506
1.829,500
1.83,494
1.831,489
1.831,484
1.831,479
1.831,473
1.832,468
1.832,463
1.834,458
1.834,454
1.834,450
1.834,447
1.834,444
1.834,442
1.834,440
1.837,438
1.837,438
1.837,438
1.837,439
1.837,440
1.837,441
1.839,442
1.839,444
1.839,447
1.839,451
1.839,456
1.839,462
1.842,468
1.843,473
1.843,479
1.843,484
1.843,489
1.843,494
1.843,498
1.845,502
1.845,505
1.845,508
1.845,510
1.845,511
1.845,511
1.847,510
1.847,509
1.847,506
1.848,503
1.848,500
1.848,496
1.848,491
1.85,486
1.85,481
1.85,477
1.85,473
1.85,470
1.85,467
1.853,463
1.853,460
1.853,457
1.853,456
1.853,455
1.853,453
1.856,452
1.856,450
1.856,448
1.856,447
1.856,446
1.856,445
1.857,445
1.858,445
1.859,446
1.859,448
1.859,450
1.859,453
1.859,456
1.861,461
1.861,466
1.861,471
1.861,475
1.861,480
1.862,485
1.862,492
1.864,501
1.864,510
1.864,517
1.864,523
1.865,527
1.865,530
1.867,532
1.867,533
1.867,533
1.867,532
1.867,530
1.867,527
1.869,524
1.869,520
1.869,515
1.869,510
1.869,505
1.869,499
1.869,492
1.872,486
1.872,480
1.872,474
1.872,469
1.872,465
1.872,461
1.875,457
1.875,454
1.875,452
1.875,450
1.875,450
1.876,450
1.876,450
1.877,450
1.877,451
1.877,452
1.877,454
1.878,456
1.878,458
1.88,460
1.88,462
1.88,465
1.88,469
1.88,472
1.88,476
1.883,479
1.883,483
1.883,486
1.883,490
1.883,493
1.883,496
1.883,500
1.886,505
1.886,509
1.886,511
1.886,515
1.886,521
1.886,525
1.888,527
1.888,527
1.888,526
1.888,522
1.888,519
1.888,516
1.888,512
1.891,508
1.891,504
1.891,500
1.891,496
1.891,494
1.891,492
1.894,490
1.894,488
1.894,486
1.894,485
1.894,483
1.894,482
1.897,481
1.897,479
1.897,478
1.897,478
1.897,479
1.897,479
1.897,481
1.899,482
1.899,484
1.9,486
1.9,489
1.9,494
1.9,498
1.902,502
1.902,507
1.902,513
1.902,518
1.902,523
1.902,528
1.903,532
1.905,536
1.905,539
1.905,543
1.905,544
1.905,546
1.905,545
1.907,544
1.908,543
1.908,541
1.908,538
1.908,535
1.908,531
1.91,526
1.91,521
1.91,515
1.91,510
1.91,504
1.91,499
1.91,494
1.913,489
1.913,484
1.913,479
1.913,474
1.913,470
1.913,467
1.916,465
1.916,463
1.916,461
1.916,460
1.916,460
1.916,460
1.917,460
1.918,461
1.918,463
1.918,465
1.918,467
1.918,471
1.918,475
1.921,479
1.921,484
1.921,490
1.921,496
1.921,501
1.921,507
1.924,513
1.924,518
1.924,523
1.924,528
1.924,531
1.924,534
1.924,536
1.926,537
1.926,538
1.926,538
1.926,538
1.926,536
1.926,534
1.929,532
1.929,528
1.929,524
1.929,519
1.929,514
1.929,509
1.929,505
1.932,500
1.932,495
1.932,491
1.932,487
1.932,483
1.932,479
1.935,476
1.935,474
1.935,472
1.935,470
1.935,469
1.935,469
1.937,469
1.937,469
1.937,470
1.937,471
1.937,473
1.937,474
1.937,476
1.939,479
1.94,482
1.94,485
1.94,490
1.94,494
1.94,499
1.942,503
1.943,508
1.943,513
1.943,518
1.943,522
1.943,526
1.943,530
1.946,532
1.946,533
1.946,536
1.946,540
1.946,543
1.946,545
1.948,546
1.948,545
1.948,541
1.948,537
1.948,531
1.948,525
1.951,519
1.951,513
1.951,508
1.951,503
1.951,497
1.951,494
1.951,491
1.954,490
1.954,491
1.954,490
1.954,489
1.954,488
1.955,486
1.956,484
1.956,483
1.956,482
1.956,482
1.956,484
1.957,484
1.957,486
1.959,487
1.959,490
1.959,492
1.959,495
1.96,499
1.96,504
1.962,511
1.962,519
1.962,526
1.962,533
1.962,539
1.962,545
1.965,551
1.965,555
1.965,559
1.965,562
1.965,564
1.965,565
1.965,566
1.967,565
1.967,564
1.967,561
1.967,559
1.967,554
1.967,550
1.97,544
1.97,538
1.97,532
1.97,526
1.97,520
1.97,513
1.97,507
1.973,500
1.973,493
1.973,485
1.973,479
1.973,473
1.973,469
1.976,466
1.976,465
1.976,464
1.976,464
1.976,464
1.976,464
1.977,465
1.978,466
1.978,467
1.978,468
1.978,471
1.978,478
1.978,487
1.981,496
1.981,505
1.981,512
1.981,519
1.981,526
1.981,532
1.984,537
1.984,543
1.984,549
1.984,554
1.984,558
1.984,561
1.984,564
1.986,566
1.986,567
1.986,568
1.987,568
1.987,568
1.987,567
1.989,565
1.989,562
1.989,557
1.989,552
1.989,547
1.989,542
1.992,536
1.992,530
1.992,525
1.992,520
1.993,514
1.993,510
1.993,505
1.995,501
1.995,497
1.995,494
1.995,491
1.995,489
1.995,488
1.997,486
1.997,486
1.997,486
1.997,486
1.997,487
1.997,488
1.998,490
2.0,492
2.0,495
2.0,499
2.0,502
2.0,507
2.0,511
2.003,515
2.003,519
2.003,523
2.003,527
2.004,531
2.004,534
2.005,538
2.005,542
2.005,546
2.005,548
2.005,548
2.005,547
2.006,546
2.008,544
2.008,541
2.008,538
2.009,535
2.009,532
2.009,530
2.011,531
2.011,534
2.011,536
2.011,537
2.011,536
2.011,534
2.011,531
2.014,527
2.014,523
2.014,519
2.014,515
2.014,512
2.014,510
2.016,508
2.016,506
2.017,505
2.017,505
2.017,505
2.017,505
2.019,506
2.019,507
2.019,509
2.019,512
2.019,515
2.019,519
2.019,523
2.022,528
2.022,533
2.022,539
2.022,544
2.022,549
2.022,554
2.025,558
2.025,563
2.025,567
2.025,569
2.026,572
2.026,574
2.026,575
2.027,575
2.027,575
2.027,574
2.027,572
2.027,569
2.028,566
2.029,561
2.029,556
2.03,551
2.03,545
2.03,539
2.03,533
2.032,528
2.032,523
2.032,518
2.032,513
2.032,509
2.033,505
2.033,502
2.035,499
2.035,497
2.035,494
2.035,493
2.035,493
2.035,492
2.037,493
2.038,493
2.038,494
2.038,495
2.038,497
2.038,499
2.038,502
2.04,505
2.04,509
2.04,514
2.041,520
2.041,525
2.041,529
2.043,535
2.043,540
2.043,545
2.043,549
2.043,552
2.043,554
2.046,555
2.046,556
2.046,556
2.046,555
2.047,554
2.047,554
2.047,554
2.048,552
2.048,549
2.048,545
2.049,539
2.049,533
2.049,527
2.052,522
2.052,517
2.052,512
2.052,507
2.052,502
2.052,498
2.052,494
2.054,490
2.054,485
2.054,481
2.054,477
2.054,474
2.054,472
2.057,473
2.057,474
2.057,477
2.057,479
2.057,482
2.057,486
2.059,493
2.059,500
2.059,508
2.059,514
2.06,520
2.06,525
2.06,531
2.063,537
2.063,542
2.063,547
2.063,553
2.063,558
2.063,563
2.065,567
2.065,571
2.065,574
2.065,575
2.065,576
2.066,576
2.066,575
2.068,573
2.068,571
2.068,568
2.068,563
2.068,558
2.069,552
2.071,547
2.071,541
2.071,535
2.071,530
2.071,524
2.071,518
2.073,513
2.073,508
2.073,503
2.073,499
2.073,495
2.073,491
2.074,488
2.076,486
2.076,483
2.076,481
2.076,479
2.076,479
2.077,479
2.078,480
2.078,481
2.079,484
2.079,487
2.079,489
2.079,493
2.079,498
2.082,503
2.082,509
2.082,515
2.082,521
2.082,528
2.082,534
2.084,540
2.084,546
2.084,550
2.084,554
2.084,558
2.084,560
2.087,562
2.087,563
2.087,564
2.087,563
2.087,562
2.087,560
2.088,557
2.09,552
2.09,547
2.09,540
2.09,533
2.09,527
2.09,520
2.092,513
2.092,506
2.093,499
2.093,492
2.093,486
2.093,480
2.093,474
2.095,469
2.095,463
2.095,459
2.096,455
2.096,452
2.096,449
2.098,448
2.098,450
2.098,457
2.098,465
2.098,472
2.098,479
2.101,485
2.101,490
2.101,496
2.101,501
2.101,506
2.101,512
2.101,518
2.103,523
2.103,527
2.103,530
2.103,534
2.103,537
2.103,539
2.106,542
2.106,543
2.106,544
2.106,546
2.106,546
2.106,545
2.106,542
2.109,538
2.109,534
2.109,530
2.109,524
2.109,518
2.109,513
2.111,508
2.111,503
2.111,498
2.111,494
2.111,490
2.111,487
2.114,485
2.114,483
2.114,481
2.114,479
2.114,478
2.114,477
2.115,477
2.117,477
2.117,479
2.117,480
2.117,481
2.117,482
2.118,484
2.12,486
2.12,488
2.12,491
2.12,495
2.12,498
2.12,503
2.121,507
2.122,512
2.122,517
2.122,522
2.122,527
2.122,531
2.123,535
2.125,539
2.125,542
2.126,544
2.126,546
2.126,548
2.126,548
2.128,547
2.128,545
2.128,543
2.128,540
2.128,536
2.128,532
2.129,527
2.131,522
2.131,517
2.131,512
2.131,507
2.131,502
2.131,497
2.133,492
2.133,488
2.133,483
2.133,478
2.133,474
2.134,471
2.134,468
2.136,466
2.136,465
2.136,464
2.136,463
2.136,463
2.136,463
2.139,463
2.139,464
2.139,466
2.139,468
2.139,471
2.139,474
2.141,479
2.141,484
2.142,489
2.142,495
2.142,501
2.142,507
2.142,512
2.144,517
2.144,522
2.144,526
2.144,529
2.144,532
2.144,533
2.147,533
2.147,533
2.147,531
2.147,529
2.147,526
2.147,523
2.148,519
2.15,514
2.15,509
2.15,504
2.15,499
2.15,494
2.15,489
2.152,484
2.152,479
2.152,474
2.152,471
2.153,469
2.153,467
2.155,464
2.155,461
2.155,456
2.155,452
2.155,447
2.155,445
2.155,447
2.158,451
2.158,454
2.158,455
2.158,457
2.158,458
2.158,459
2.161,462
2.161,466
2.161,473
2.161,482
2.161,492
2.161,500
2.161,508
2.163,514
2.163,520
2.163,526
2.163,530
2.163,533
2.163,536
2.166,539
2.166,540
2.166,542
2.166,542
2.166,541
2.166,539
2.169,537
2.169,533
2.169,529
2.169,524
2.169,519
2.169,513
2.169,508
2.171,502
2.171,496
2.171,490
2.171,485
2.171,479
2.172,474
2.173,470
2.174,465
2.174,462
2.174,458
2.174,455
2.174,453
2.174,451
2.176,450
2.176,449
2.176,449
2.176,449
2.176,450
2.176,451
2.179,454
2.179,457
2.18,460
2.18,463
2.18,467
2.18,472
2.182,476
2.182,480
2.182,484
2.182,489
2.182,494
2.182,498
2.182,502
2.184,505
2.184,508
2.184,510
2.184,511
2.185,512
2.185,512
2.188,511
2.188,509
2.188,508
2.188,507
2.188,506
2.188,503
2.188,500
2.19,495
2.19,489
2.19,483
2.19,478
2.19,474
2.19,470
2.192,466
2.193,462
2.193,458
2.193,455
2.193,453
2.193,450
2.196,448
2.196,447
2.196,445
2.196,444
2.197,443
2.197,443
2.197,444
2.198,446
2.198,447
2.199,448
2.199,449
2.199,450
2.199,453
2.201,457
2.201,461
2.201,467
2.201,473
2.201,479
2.201,486
2.202,492
2.204,498
2.204,504
2.204,510
2.204,515
2.204,520
2.204,524
2.206,527
2.206,529
2.207,530
2.207,531
2.207,530
2.207,529
2.208,526
2.209,521
2.209,516
2.209,509
2.209,503
2.209,496
2.209,489
2.212,482
2.212,476
2.212,470
2.212,465
2.212,462
2.212,459
2.215,457
2.215,455
2.215,453
2.215,451
2.215,450
2.215,453
2.215,460
2.218,467
2.218,472
2.218,475
2.218,477
2.218,479
2.218,481
2.22,482
2.221,484
2.221,486
2.221,490
2.221,496
2.221,502
2.223,508
2.223,514
2.223,520
2.223,524
2.223,529
2.223,533
2.224,537
2.226,541
2.226,543
2.226,545
2.226,546
2.226,546
2.226,545
2.229,544
2.229,542
2.229,539
2.229,536
2.229,531
2.229,527
2.229,523
2.231,518
2.231,513
2.231,508
2.231,503
2.231,498
2.231,493
2.234,488
2.234,484
2.234,480
2.234,477
2.234,474
2.235,472
2.237,470
2.237,469
2.237,468
2.237,468
2.237,469
2.237,469
2.238,470
2.239,471
2.239,473
2.239,476
2.239,480
2.239,484
2.239,489
2.242,494
2.242,499
2.243,504
2.243,509
2.243,514
2.243,518
2.243,522
2.245,525
2.245,528
2.245,531
2.245,534
2.245,535
2.245,536
2.248,536
2.248,535
2.248,533
2.248,530
2.249,527
2.249,526
2.25,525
2.25,524
2.25,521
2.25,518
2.251,514
2.251,509
2.251,504
2.253,499
2.253,494
2.253,489
2.253,484
2.253,478
2.253,474
2.256,470
2.256,467
2.256,464
2.256,462
2.256,459
2.256,457
2.256,456
2.258,455
2.258,456
2.258,457
2.258,461
2.258,467
2.258,474
2.261,482
2.261,489
2.261,495
2.261,501
2.261,506
2.261,512
2.264,517
2.264,522
2.264,527
2.264,532
2.264,535
2.264,538
2.264,541
2.266,543
2.266,544
2.266,545
2.266,545
2.267,544
2.267,543
2.269,541
2.269,538
2.269,534
2.269,529
2.269,525
2.269,520
2.269,515
2.272,510
2.272,506
2.272,501
2.272,497
2.272,493
2.272,489
2.275,485
2.275,482
2.275,479
2.275,477
2.275,476
2.275,475
2.278,475
2.278,475
2.278,475
2.278,476
2.278,478
2.278,480
2.278,483
2.28,486
2.28,489
2.28,493
2.28,497
2.28,503
2.28,507
2.283,513
2.283,519
2.283,525
2.283,530
2.283,535
2.283,540
2.283,544
2.285,548
2.285,551
2.286,554
2.286,555
2.286,556
2.286,555
2.288,554
2.288,552
2.288,550
2.288,547
2.288,543
2.289,538
2.291,534
2.291,529
2.291,524
2.291,519
2.291,514
2.291,509
2.291,505
2.294,500
2.294,495
2.294,490
2.294,485
2.294,481
2.294,478
2.297,475
2.297,474
2.297,473
2.297,473
2.298,474
2.298,475
2.298,477
2.299,480
2.299,483
2.299,487
2.299,492
2.299,498
2.299,506
2.302,514
2.302,521
2.302,529
2.302,537
2.302,543
2.302,549
2.305,555
2.305,559
2.305,563
2.305,567
2.305,571
2.305,574
2.305,576
2.307,576
2.307,576
2.307,573
2.307,570
2.307,566
2.307,562
2.31,556
2.31,551
2.31,546
2.31,541
2.31,535
2.31,530
2.31,524
2.312,518
2.313,512
2.313,506
2.313,502
2.313,498
2.313,495
2.315,492
2.315,489
2.316,486
2.316,483
2.316,481
2.316,480
2.318,483
2.318,489
2.318,495
2.318,498
2.318,501
2.318,503
2.318,504
2.321,507
2.321,509
2.321,512
2.321,515
2.321,519
2.321,522
2.324,526
2.324,529
2.324,532
2.324,533
2.324,533
2.324,532
2.324,534
2.326,536
2.326,539
2.326,542
2.326,543
2.327,543
2.327,541
2.329,539
2.329,537
2.329,535
2.329,532
2.329,529
2.329,526
2.332,523
2.332,519
2.332,516
2.332,514
2.332,512
2.332,511
2.332,510
2.335,509
2.335,507
2.335,504
2.335,502
2.335,500
2.335,498
2.337,496
2.337,495
2.337,495
2.337,495
2.337,496
2.337,497
2.337,499
2.34,501
2.34,503
2.34,507
2.34,510
2.34,515
2.34,520
2.343,524
2.343,530
2.343,535
2.343,540
2.343,545
2.344,549
2.346,553
2.346,556
2.346,559
2.346,561
2.346,562
2.346,562
2.346,562
2.348,562
2.348,560
2.348,557
2.348,554
2.348,551
2.348,546
2.351,541
2.351,536
2.351,531
2.351,526
2.351,520
2.351,515
2.351,510
2.354,505
2.354,500
2.354,496
2.354,491
2.354,488
2.354,485
2.356,482
2.356,481
2.356,480
2.356,479
2.356,479
2.356,479
2.359,481
2.359,481
2.359,484
2.359,486
2.359,489
2.359,494
2.359,499
2.362,504
2.362,510
2.362,516
2.362,522
2.362,528
2.362,534
2.365,539
2.365,544
2.365,549
2.365,553
2.365,556
2.365,558
2.365,559
2.367,560
2.367,559
2.367,559
2.367,557
2.367,554
2.367,550
2.37,545
2.37,540
2.37,534
2.37,528
2.37,523
2.37,517
2.372,512
2.372,507
2.372,502
2.373,498
2.373,494
2.373,491
2.373,488
2.375,486
2.375,484
2.375,484
2.375,483
2.376,484
2.376,484
2.378,484
2.378,484
2.378,485
2.378,485
2.378,486
2.378,488
2.378,490
2.38,493
2.381,498
2.381,504
2.381,510
2.381,517
2.381,523
2.383,530
2.383,536
2.383,541
2.383,547
2.384,552
2.384,557
2.386,560
2.386,562
2.386,564
2.386,566
2.386,566
2.386,565
2.386,563
2.389,560
2.389,556
2.389,552
2.389,546
2.389,541
2.389,535
2.392,530
2.392,525
2.392,520
2.392,516
2.392,512
2.393,509
2.393,505
2.395,502
2.395,499
2.395,495
2.395,493
2.395,490
2.395,489
2.397,488
2.397,487
2.397,487
2.397,487
2.397,488
2.397,490
2.4,492
2.4,494
2.4,496
2.4,499
2.4,503
2.4,508
2.401,513
2.403,519
2.403,523
2.403,527
2.403,530
2.403,533
2.403,536
2.405,538
2.405,539
2.406,540
2.406,540
2.406,539
2.406,537
2.406,534
2.408,531
2.408,527
2.408,526
2.408,525
2.408,525
2.408,523
2.411,520
2.411,516
2.411,511
2.411,506
2.411,500
2.411,495
2.413,494
2.413,497
2.413,501
2.413,504
2.414,506
2.414,507
2.414,505
2.416,503
2.416,501
2.416,498
2.416,496
2.416,496
2.416,495
2.419,495
2.419,495
2.419,496
2.419,497
2.419,499
2.419,502
2.419,506
2.421,511
2.421,515
2.421,520
2.421,525
2.422,530
2.422,535
2.424,541
2.424,546
2.424,550
2.424,554
2.424,557
2.424,559
2.427,560
2.427,560
2.427,559
2.427,558
2.427,556
2.427,554
2.427,552
2.43,549
2.43,545
2.43,541
2.43,536
2.43,531
2.43,525
2.433,517
2.433,509
2.433,501
2.433,493
2.433,485
2.433,478
2.433,472
2.435,468
2.435,465
2.435,463
2.435,463
2.435,462
2.435,463
2.438,464
2.438,465
2.438,467
2.438,470
2.438,474
2.438,478
2.441,483
2.441,487
2.441,492
2.441,499
2.441,505
2.441,511
2.441,517
2.443,523
2.443,528
2.443,533
2.443,537
2.444,542
2.444,546
2.446,549
2.446,551
2.446,552
2.446,552
2.446,552
2.446,550
2.446,548
2.449,545
2.449,541
2.449,537
2.449,531
2.449,525
2.449,519
2.451,514
2.451,508
2.451,503
2.452,497
2.452,493
2.452,489
2.454,484
2.454,480
2.454,477
2.454,475
2.454,473
2.454,471
2.455,471
2.456,470
2.457,470
2.457,469
2.457,469
2.457,469
2.457,470
2.459,472
2.459,473
2.459,476
2.46,480
2.46,484
2.46,488
2.46,493
2.462,497
2.462,502
2.462,508
2.462,513
2.462,518
2.463,523
2.465,528
2.465,532
2.465,537
2.465,541
2.465,545
2.465,549
2.467,551
2.467,551
2.467,549
2.468,545
2.468,541
2.468,536
2.468,531
2.471,524
2.471,517
2.471,510
2.471,502
2.471,495
2.471,487
2.473,481
2.473,475
2.473,469
2.473,467
2.473,467
2.473,467
2.473,466
2.476,466
2.476,465
2.476,463
2.476,463
2.476,465
2.477,469
2.478,473
2.478,476
2.478,479
2.479,483
2.479,485
2.479,489
2.482,493
2.482,497
2.482,501
2.482,506
2.482,510
2.482,515
2.482,520
2.484,525
2.484,529
2.484,533
2.484,536
2.484,539
2.485,541
2.487,542
2.487,543
2.487,543
2.487,543
2.487,542
2.487,540
2.488,537
2.49,534
2.49,530
2.49,525
2.49,521
2.49,516
2.49,511
2.493,506
2.493,502
2.493,497
2.493,492
2.494,487
2.494,483
2.495,479
2.495,474
2.495,470
2.495,467
2.495,465
2.495,464
2.496,463
2.498,464
2.498,464
2.498,465
2.498,465
2.498,466
2.499,466
2.501,468
2.501,471
2.501,477
2.501,483
2.501,489
2.501,496
2.501,502
2.503,508
2.503,514
2.503,519
2.503,524
2.503,528
2.504,532
2.506,535
2.506,537
2.506,538
2.506,539
2.506,538
2.506,536
2.509,533
2.509,530
2.509,526
2.509,521
2.509,515
2.509,509
2.509,502
2.511,496
2.511,489
2.511,484
2.511,483
2.511,484
2.511,484
2.514,483
2.514,482
2.514,480
2.514,479
2.514,478
2.514,476
2.514,474
2.517,473
2.517,473
2.517,473
2.517,474
2.517,474
2.517,475
2.52,476
2.52,478
2.52,480
2.52,482
2.52,485
2.52,489
2.522,494
2.522,498
2.522,504
2.522,509
2.522,514
2.522,518
2.523,521
2.524,524
2.524,527
2.525,529
2.525,531
2.525,533
2.525,534
2.528,535
2.528,535
2.528,535
2.528,533
2.528,531
2.528,528
2.528,523
2.53,518
2.53,513
2.53,507
2.53,502
2.53,497
2.53,493
2.533,489
2.533,486
2.533,481
2.533,478
2.533,474
2.533,470
2.535,466
2.535,463
2.535,460
2.536,458
2.536,455
2.536,453
2.536,452
2.538,452
2.538,453
2.538,456
2.538,458
2.538,461
2.538,464
2.541,468
2.541,472
2.541,476
2.541,481
2.541,485
2.541,490
2.541,495
2.543,502
2.543,510
2.544,518
2.544,526
2.544,533
2.544,537
2.546,541
2.546,543
2.546,545
2.546,545
2.546,544
2.546,542
2.55,540
2.55,536
2.55,532
2.55,528
2.55,523
2.55,517
2.55,512
2.552,506
2.552,500
2.552,494
2.552,488
2.552,483
2.552,479
2.555,478
2.555,478
2.555,478
2.555,477
2.555,475
2.555,473
2.555,472
2.558,471
2.558,470
2.558,472
2.558,474
2.558,476
2.558,479
2.56,481
2.56,485
2.56,488
2.561,493
2.561,498
2.561,505
2.563,511
2.563,517
2.563,523
2.563,528
2.563,534
2.563,539
2.564,543
2.566,547
2.566,550
2.566,553
2.566,555
2.566,556
2.566,556
2.569,556
2.569,554
2.569,552
2.569,548
2.569,544
2.569,539
2.569,534
2.571,528
2.571,523
2.571,519
2.571,513
2.571,508
2.571,503
2.574,499
2.574,495
2.574,491
2.574,488
2.574,485
2.574,482
2.576,480
2.576,479
2.576,479
2.577,478
2.577,479
2.577,479
2.577,480
2.579,481
2.579,483
2.579,486
2.579,490
2.579,494
2.58,499
2.582,504
2.582,509
2.582,514
2.582,520
2.582,525
2.582,530
2.582,535
2.585,540
2.585,544
2.585,547
2.585,549
2.585,550
2.585,551
2.588,551
2.588,551
2.588,550
2.588,548
2.588,545
2.588,542
2.59,537
2.59,533
2.59,528
2.59,523
2.59,518
2.59,513
2.591,508
2.593,503
2.593,499
2.593,495
2.593,492
2.594,489
2.594,486
2.596,484
2.596,482
2.596,479
2.596,477
2.596,476
2.596,475
2.597,476
2.599,479
2.599,482
2.599,486
2.599,489
2.599,492
2.599,495
2.601,500
2.601,505
2.601,510
2.601,516
2.601,523
2.601,529
2.604,536
2.604,542
2.604,548
2.604,553
2.604,557
2.604,560
2.604,563
2.607,564
2.607,564
2.608,563
2.608,561
2.608,560
2.608,558
2.61,557
2.61,555
2.611,553
2.611,550
2.611,545
2.611,541
2.611,535
2.612,529
2.612,522
2.612,515
2.612,510
2.612,506
2.612,502
2.615,499
2.615,496
2.615,493
2.615,491
2.615,490
2.615,488
2.618,488
2.618,487
2.618,487
2.618,487
2.618,488
2.618,489
2.618,491
2.62,494
2.62,497
2.62,501
2.62,505
2.62,509
2.62,512
2.622,515
2.622,517
2.623,520
2.623,526
2.623,535
2.623,542
2.623,547
2.627,550
2.627,552
2.627,553
2.627,553
2.627,554
2.627,556
2.628,558
2.628,559
2.628,558
2.628,556
2.628,555
2.628,553
2.631,552
2.631,549
2.631,546
2.631,542
2.631,538
2.631,534
2.631,529
2.634,525
2.634,520
2.634,516
2.634,512
2.634,509
2.634,506
2.637,503
2.637,502
2.637,500
2.637,500
2.637,499
2.638,500
2.638,501
2.639,503
2.639,505
2.639,507
2.639,510
2.639,514
2.64,518
2.642,522
2.642,527
2.643,531
2.643,537
2.643,543
2.643,548
2.645,553
2.645,558
2.645,562
2.645,566
2.645,569
2.645,571
2.645,572
2.647,572
2.647,572
2.647,571
2.647,568
2.647,566
2.647,561
2.65,557
2.65,552
2.65,547
2.651,542
2.651,535
2.651,530
2.651,524
2.652,518
2.652,513
2.652,507
2.653,502
2.653,497
2.653,492
2.656,489
2.656,487
2.656,485
2.656,484
2.657,484
2.657,484
2.658,486
2.659,487
2.659,490
2.659,492
2.659,495
2.659,499
2.659,503
2.661,508
2.661,513
2.661,517
2.661,521
2.661,526
2.661,530
2.664,535
2.664,540
2.664,545
2.664,550
2.664,554
2.664,557
2.664,560
2.667,564
2.667,567
2.667,569
2.667,571
2.667,571
2.667,570
2.669,568
2.669,565
2.669,560
2.669,555
2.669,550
2.67,544
2.672,538
2.672,532
2.672,528
2.672,525
2.672,522
2.673,519
2.673,515
2.675,512
2.675,508
2.675,505
2.675,502
2.675,499
2.675,498
2.677,497
2.677,496
2.677,496
2.677,497
2.677,498
2.677,499
2.677,501
2.68,503
2.68,505
2.68,509
2.68,513
2.68,517
2.68,522
2.683,528
2.683,533
2.683,538
2.683,543
2.683,548
2.683,552
2.686,556
2.686,558
2.686,561
2.686,563
2.686,564
2.687,565
2.687,564
2.688,563
2.688,561
2.688,557
2.688,552
2.688,546
2.688,540
2.691,532
2.691,524
2.691,515
2.691,507
2.691,499
2.691,492
2.691,488
2.693,484
2.693,481
2.693,478
2.694,475
2.694,471
2.694,469
2.696,467
2.696,466
2.696,469
2.696,475
2.696,482
2.696,486
2.699,490
2.7,494
2.7,497
2.7,501
2.7,505
2.7,510
2.7,515
2.702,521
2.702,527
2.702,534
2.702,540
2.702,545
2.702,552
2.705,556
2.705,561
2.705,564
2.705,567
2.705,569
2.705,568
2.706,566
2.707,563
2.707,559
2.707,554
2.707,549
2.707,543
2.707,537
2.71,531
2.71,525
2.71,518
2.71,511
2.71,504
2.71,497
2.712,493
2.712,493
2.712,495
2.713,497
2.713,497
2.713,496
2.713,493
2.715,490
2.715,486
2.715,483
2.715,481
2.715,480
2.716,480
2.717,481
2.718,482
2.718,483
2.718,484
2.718,486
2.718,488
2.718,490
2.72,493
2.72,497
2.72,502
2.721,507
2.721,513
2.721,519
2.723,525
2.723,530
2.723,535
2.723,540
2.723,544
2.723,547
2.726,550
2.726,552
2.726,554
2.727,554
2.727,554
2.727,553
2.727,551
2.729,549
2.729,546
2.729,541
2.729,537
2.729,532
2.729,528
2.732,523
2.732,518
2.732,513
2.733,508
2.733,503
2.733,498
2.733,494
2.735,489
2.735,486
2.735,482
2.735,479
2.735,478
2.735,476
2.737,474
2.737,473
2.737,472
2.737,472
2.737,473
2.737,474
2.74,476
2.74,478
2.74,480
2.74,484
2.74,488
2.74,492
2.741,497
2.743,503
2.743,508
2.743,513
2.743,518
2.743,524
2.743,528
2.746,533
2.746,537
2.746,540
2.746,544
2.746,545
2.746,545
2.748,545
2.748,545
2.748,543
2.748,541
2.748,539
2.749,536
2.749,532
2.75,529
2.751,525
2.751,521
2.751,516
2.751,512
2.751,508
2.753,504
2.753,499
2.753,495
2.753,491
2.753,487
2.753,483
2.753,480
2.755,476
2.756,473
2.756,470
2.756,469
2.756,469
2.756,470
2.759,473
2.759,477
2.759,480
2.759,483
2.759,485
2.76,489
2.76,492
2.761,496
2.761,500
2.761,505
2.761,510
2.761,516
2.762,521
2.764,525
2.764,529
2.765,533
2.765,535
2.765,537
2.765,537
2.767,538
2.767,538
2.767,538
2.767,538
2.767,536
2.767,532
2.767,527
2.77,520
2.77,514
2.77,506
2.77,499
2.77,492
2.77,485
2.772,479
2.773,472
2.773,465
2.773,458
2.773,452
2.773,446
2.773,442
2.775,441
2.775,444
2.775,447
2.775,448
2.776,448
2.776,448
2.778,449
2.778,452
2.778,454
2.778,456
2.779,458
2.779,460
2.78,462
2.781,463
2.781,466
2.781,469
2.781,473
2.781,476
2.781,480
2.783,484
2.783,487
2.783,490
2.783,493
2.783,496
2.784,499
2.786,501
2.786,502
2.786,503
2.786,505
2.786,510
2.786,517
2.786,523
2.789,526
2.789,526
2.789,524
2.789,520
2.789,515
2.789,510
2.792,505
2.792,499
2.792,495
2.792,490
2.792,485
2.792,480
2.794,475
2.794,471
2.794,467
2.794,465
2.794,463
2.795,462
2.795,460
2.797,458
2.797,457
2.797,456
2.797,456
2.797,456
2.798,457
2.8,459
2.8,460
2.8,463
2.8,466
2.8,469
2.8,473
2.8,478
2.803,483
2.803,488
2.803,493
2.803,498
2.803,503
2.803,507
2.805,510
2.805,514
2.805,518
2.805,520
2.805,523
2.805,523
2.808,524
2.808,523
2.808,521
2.808,519
2.808,517
2.808,513
2.808,509
2.811,505
2.811,500
2.811,496
2.811,491
2.811,486
2.811,481
2.814,476
2.814,472
2.814,467
2.814,463
2.814,459
2.814,457
2.814,455
2.816,453
2.816,452
2.816,451
2.816,450
2.816,450
2.816,449
2.819,450
2.819,451
2.819,453
2.819,455
2.819,458
2.819,461
2.822,464
2.822,469
2.822,474
2.822,479
2.822,484
2.822,489
2.822,495
2.824,500
2.824,504
2.825,508
2.825,512
2.825,515
2.825,518
2.827,520
2.827,521
2.827,523
2.827,524
2.827,524
2.827,524
2.827,522
2.83,518
2.83,514
2.83,510
2.83,505
2.83,501
2.83,496
2.833,491
2.833,487
2.833,482
2.833,478
2.833,474
2.833,470
2.835,467
2.835,463
2.835,460
2.835,457
2.835,455
2.835,453
2.835,453
2.838,452
2.838,453
2.838,454
2.838,455
2.838,456
2.838,458
2.84,460
2.84,463
2.841,467
2.841,472
2.841,476
2.841,482
2.841,486
2.843,492
2.843,497
2.844,502
2.844,507
2.844,511
2.844,515
2.846,518
2.846,521
2.846,524
2.846,526
2.846,527
2.846,527
2.849,527
2.849,525
2.849,523
2.849,520
2.849,516
2.849,511
2.849,507
2.852,501
2.852,496
2.852,491
2.852,486
2.852,481
2.852,476
2.854,471
2.854,466
2.854,461
2.854,458
2.854,456
2.854,456
2.855,457
2.857,457
2.857,457
2.857,456
2.858,457
2.858,458
2.858,459
2.86,461
2.86,463
2.86,466
2.86,469
2.86,473
2.86,478
2.862,484
2.862,490
2.862,496
2.862,502
2.862,509
2.862,515
2.862,520
2.865,525
2.865,529
2.865,532
2.865,535
2.865,537
2.865,538
2.868,539
2.868,539
2.868,539
2.868,537
2.868,534
2.868,531
2.869,526
2.871,521
2.871,516
2.871,511
2.871,506
2.871,501
2.872,496
2.874,492
2.874,487
2.874,483
2.874,479
2.874,475
2.874,472
2.876,469
2.876,466
2.877,464
2.877,462
2.877,460
2.877,459
2.877,459
2.879,460
2.879,461
2.879,462
2.879,464
2.879,467
2.88,470
2.881,473
2.881,476
2.881,481
2.882,488
2.882,497
2.882,506
2.882,514
2.884,521
2.884,526
2.884,529
2.884,531
2.884,532
2.884,533
2.887,533
2.887,532
2.887,531
2.887,529
2.887,527
2.887,524
2.889,522
2.889,518
2.889,514
2.89,511
2.89,508
2.89,504
2.89,501
2.892,498
2.892,493
2.892,489
2.892,486
2.892,484
2.893,483
2.895,483
2.895,481
2.895,479
2.895,476
2.895,473
2.895,471
2.895,468
2.898,466
2.898,464
2.898,464
2.898,464
2.898,469
2.898,475
2.901,480
2.901,485
2.901,489
2.901,494
2.901,500
2.901,507
2.903,515
2.903,521
2.903,528
2.903,533
2.903,538
2.903,542
2.903,546
2.906,549
2.906,551
2.906,553
2.906,555
2.906,555
2.906,555
2.909,554
2.909,553
2.909,551
2.909,547
2.909,543
2.91,538
2.91,533
2.912,528
2.912,525
2.912,521
2.912,518
2.912,514
2.912,510
2.914,505
2.914,501
2.914,498
2.914,495
2.914,492
2.914,490
2.917,488
2.917,487
2.917,486
2.917,486
2.917,487
2.917,488
2.917,490
2.92,492
2.92,494
2.92,497
2.92,500
2.92,504
2.92,509
2.922,514
2.922,519
2.922,525
2.922,530
2.922,535
2.922,541
2.923,546
2.925,551
2.925,555
2.925,559
2.925,562
2.925,565
2.926,566
2.928,566
2.928,566
2.928,565
2.928,563
2.928,561
2.929,557
2.931,554
2.931,549
2.931,545
2.931,541
2.931,536
2.931,532
2.931,527
2.933,522
2.933,518
2.933,514
2.933,510
2.933,507
2.934,505
2.936,503
2.936,501
2.936,499
2.936,498
2.936,497
2.936,497
2.937,497
2.939,498
2.939,500
2.939,502
2.939,504
2.939,507
2.939,510
2.941,513
2.941,518
2.941,523
2.941,528
2.941,534
2.941,540
2.944,546
2.944,551
2.944,556
2.944,561
2.944,566
2.944,569
2.944,572
2.947,575
2.947,576
2.947,577
2.947,577
2.947,575
2.947,573
2.95,571
2.95,567
2.95,563
2.95,558
2.95,554
2.95,549
2.95,544
2.952,540
2.952,535
2.952,531
2.952,527
2.952,523
2.952,518
2.955,514
2.955,510
2.955,508
2.955,506
2.955,505
2.955,504
2.958,505
2.958,505
2.958,506
2.958,508
2.958,510
2.958,513
2.958,517
2.96,521
2.96,525
2.96,528
2.96,532
2.96,537
2.96,542
2.963,547
2.963,552
2.963,557
2.963,561
2.963,566
2.963,569
2.963,573
2.966,577
2.966,580
2.966,582
2.966,583
2.966,583
2.966,582
2.968,580
2.968,577
2.968,574
2.968,570
2.968,565
2.968,561
2.97,556
2.97,552
2.97,547
2.97,543
2.971,540
2.971,539
2.971,538
2.973,537
2.973,535
2.973,531
2.973,528
2.973,525
2.973,522
2.976,519
2.976,517
2.976,515
2.976,515
2.976,515
2.976,516
2.976,518
2.979,520
2.979,523
2.979,526
2.98,529
2.98,534
2.98,539
2.982,544
2.982,550
2.982,556
2.982,561
2.982,567
2.982,572
2.985,577
2.985,581
2.985,585
2.985,589
2.985,592
2.985,594
2.985,596
2.987,596
2.987,596
2.987,593
2.987,589
2.987,585
2.988,580
2.99,575
2.99,569
2.99,564
2.99,559
2.99,554
2.99,548
2.99,543
2.993,538
2.993,532
2.993,526
2.993,520
2.993,514
2.994,510
2.996,507
2.996,507
2.996,508
2.996,508
2.996,508
2.996,507
2.999,506
2.999,505
2.999,506
2.999,505
2.999,506
2.999,508
2.999,515
