Timestamp,Sensor Data
0.0,470
0.0,469
0.0,468
0.001,467
0.001,466
0.001,466
0.003,465
0.003,465
0.003,465
0.003,465
0.004,467
0.004,468
0.006,469
0.006,471
0.006,473
0.006,474
0.007,477
0.007,479
0.007,481
0.008,484
0.008,486
0.008,488
0.009,491
0.009,494
0.009,497
0.011,501
0.011,505
0.011,509
0.011,513
0.011,517
0.011,521
0.012,525
0.014,529
0.014,533
0.014,537
0.014,540
0.014,543
0.016,547
0.016,550
0.016,552
0.016,554
0.016,555
0.017,554
0.017,553
0.019,551
0.019,547
0.019,543
0.019,539
0.019,535
0.019,529
0.02,524
0.022,518
0.022,512
0.022,506
0.022,500
0.022,494
0.022,488
0.025,482
0.025,476
0.025,470
0.025,465
0.025,460
0.025,456
0.025,452
0.027,449
0.027,447
0.027,446
0.027,446
0.027,447
0.027,449
0.03,452
0.03,456
0.03,463
0.03,473
0.03,483
0.03,494
0.033,504
0.033,512
0.033,521
0.033,528
0.033,534
0.033,540
0.033,545
0.036,549
0.036,553
0.036,556
0.036,558
0.036,558
0.036,557
0.038,554
0.038,549
0.038,544
0.038,540
0.038,534
0.038,528
0.039,521
0.041,513
0.041,505
0.041,498
0.041,490
0.041,481
0.041,474
0.043,467
0.043,462
0.043,462
0.043,467
0.043,473
0.045,477
0.046,480
0.046,480
0.046,481
0.046,480
0.046,480
0.046,480
0.047,481
0.049,481
0.049,483
0.049,484
0.049,486
0.049,489
0.049,493
0.052,497
0.052,502
0.052,508
0.052,513
0.052,519
0.052,525
0.052,531
0.055,536
0.055,540
0.055,543
0.055,546
0.055,547
0.055,548
0.057,549
0.057,548
0.057,549
0.057,549
0.057,548
0.057,547
0.06,544
0.06,541
0.06,536
0.06,532
0.06,527
0.06,521
0.06,517
0.063,512
0.063,508
0.063,504
0.063,500
0.063,496
0.064,492
0.066,488
0.066,484
0.066,480
0.066,478
0.066,475
0.066,473
0.067,472
0.068,471
0.068,472
0.068,473
0.068,474
0.068,475
0.068,477
0.071,480
0.071,484
0.071,488
0.071,493
0.071,498
0.071,504
0.074,511
0.074,516
0.074,521
0.074,527
0.074,532
0.074,536
0.075,540
0.077,545
0.077,550
0.077,553
0.077,555
0.077,555
0.077,555
0.079,553
0.079,551
0.079,548
0.079,543
0.079,538
0.079,533
0.08,527
0.082,521
0.082,515
0.082,509
0.082,503
0.082,498
0.082,493
0.085,489
0.085,485
0.085,480
0.085,477
0.085,474
0.085,471
0.087,469
0.087,467
0.087,466
0.087,466
0.087,467
0.088,468
0.088,470
0.09,472
0.09,475
0.09,479
0.09,483
0.09,488
0.09,493
0.093,498
0.093,504
0.093,510
0.093,517
0.094,522
0.094,528
0.094,534
0.096,539
0.096,544
0.096,548
0.096,551
0.096,553
0.096,555
0.098,555
0.098,555
0.098,553
0.098,551
0.098,548
0.098,544
0.1,539
0.101,533
0.101,528
0.101,522
0.101,516
0.101,509
0.101,504
0.103,498
0.103,493
0.103,488
0.103,483
0.103,479
0.103,476
0.106,473
0.106,470
0.106,468
0.107,467
0.107,466
0.107,466
0.107,467
0.109,468
0.109,469
0.109,472
0.109,475
0.109,478
0.109,481
0.111,486
0.111,491
0.111,496
0.111,502
0.111,509
0.112,515
0.114,520
0.114,525
0.114,531
0.114,536
0.114,540
0.114,544
0.114,548
0.117,550
0.117,552
0.117,554
0.117,554
0.117,554
0.118,552
0.12,550
0.12,546
0.12,541
0.12,535
0.12,530
0.12,524
0.12,518
0.123,511
0.123,505
0.123,500
0.123,495
0.123,491
0.123,487
0.125,483
0.125,480
0.125,477
0.125,474
0.126,472
0.126,470
0.128,469
0.128,467
0.128,467
0.128,467
0.128,468
0.128,469
0.128,471
0.131,474
0.131,477
0.131,481
0.131,486
0.131,492
0.131,499
0.134,506
0.134,513
0.134,520
0.134,526
0.134,532
0.134,537
0.134,541
0.136,544
0.136,546
0.136,548
0.136,549
0.136,550
0.136,549
0.139,548
0.139,546
0.139,544
0.139,541
0.139,535
0.139,529
0.141,523
0.141,518
0.141,514
0.141,512
0.141,509
0.142,505
0.142,502
0.144,497
0.144,493
0.144,489
0.144,485
0.144,482
0.144,480
0.147,478
0.147,477
0.147,477
0.147,478
0.147,479
0.147,480
0.147,482
0.15,484
0.15,487
0.15,490
0.15,494
0.15,499
0.15,504
0.153,510
0.153,516
0.153,522
0.153,528
0.153,535
0.153,541
0.155,547
0.155,551
0.155,556
0.155,560
0.155,563
0.156,564
0.156,565
0.158,564
0.158,563
0.158,562
0.158,560
0.158,557
0.158,552
0.161,548
0.161,542
0.161,536
0.161,530
0.161,523
0.161,517
0.161,512
0.164,506
0.164,501
0.164,496
0.164,491
0.164,487
0.164,483
0.166,480
0.166,477
0.166,474
0.166,472
0.166,471
0.167,470
0.169,470
0.169,469
0.169,470
0.169,471
0.169,473
0.169,475
0.169,477
0.171,481
0.172,486
0.172,491
0.172,497
0.172,503
0.172,510
0.174,516
0.174,523
0.174,529
0.174,535
0.175,541
0.175,545
0.175,549
0.177,552
0.177,553
0.177,554
0.177,553
0.177,552
0.177,550
0.18,547
0.18,544
0.18,541
0.18,537
0.18,532
0.18,525
0.183,520
0.183,514
0.183,507
0.183,501
0.183,495
0.183,488
0.183,483
0.185,478
0.185,473
0.185,469
0.185,465
0.185,462
0.185,460
0.188,457
0.188,455
0.188,453
0.188,453
0.189,455
0.189,457
0.189,460
0.191,463
0.191,469
0.191,476
0.191,483
0.191,492
0.191,499
0.193,505
0.193,512
0.193,518
0.193,524
0.193,531
0.193,539
0.196,546
0.196,552
0.196,556
0.196,559
0.196,561
0.196,562
0.196,561
0.199,559
0.199,556
0.199,552
0.199,547
0.199,542
0.199,536
0.202,529
0.202,523
0.202,517
0.202,511
0.202,504
0.203,497
0.203,490
0.205,483
0.205,477
0.205,472
0.205,468
0.205,464
0.205,461
0.207,459
0.207,458
0.207,456
0.207,456
0.207,456
0.207,456
0.21,457
0.21,459
0.21,463
0.21,468
0.21,473
0.21,480
0.21,487
0.213,494
0.213,502
0.213,509
0.213,516
0.214,523
0.214,529
0.215,535
0.215,541
0.215,545
0.215,549
0.215,552
0.216,555
0.216,557
0.217,558
0.217,557
0.218,555
0.218,552
0.218,548
0.218,542
0.221,535
0.221,527
0.221,519
0.221,511
0.221,503
0.221,495
0.223,487
0.223,478
0.223,470
0.223,462
0.223,454
0.223,448
0.223,443
0.226,439
0.226,436
0.226,433
0.227,429
0.227,427
0.227,426
0.229,428
0.229,435
0.229,447
0.229,457
0.229,465
0.229,473
0.229,481
0.232,490
0.232,499
0.232,508
0.232,517
0.232,526
0.232,534
0.234,543
0.234,550
0.235,557
0.235,562
0.235,567
0.235,571
0.237,574
0.237,575
0.237,576
0.237,575
0.237,574
0.237,572
0.238,569
0.24,565
0.24,561
0.24,555
0.24,550
0.24,544
0.24,539
0.242,532
0.242,526
0.242,519
0.243,513
0.243,507
0.243,501
0.243,496
0.245,491
0.245,487
0.245,482
0.245,478
0.245,475
0.245,473
0.248,471
0.248,470
0.248,471
0.248,470
0.248,471
0.249,472
0.251,474
0.251,477
0.251,479
0.251,483
0.251,488
0.251,493
0.251,499
0.253,505
0.253,511
0.253,516
0.253,522
0.253,527
0.253,532
0.256,537
0.256,541
0.256,544
0.256,547
0.256,548
0.256,548
0.256,547
0.259,545
0.259,543
0.259,539
0.259,534
0.26,529
0.26,523
0.262,517
0.262,511
0.262,505
0.262,499
0.262,493
0.262,488
0.264,482
0.264,477
0.264,472
0.265,468
0.265,464
0.265,461
0.265,458
0.267,457
0.267,457
0.267,457
0.267,457
0.267,457
0.267,458
0.27,459
0.27,461
0.27,464
0.27,466
0.27,470
0.27,474
0.27,479
0.272,484
0.272,490
0.272,496
0.272,502
0.272,508
0.272,513
0.275,519
0.275,524
0.275,529
0.275,533
0.275,536
0.275,539
0.278,541
0.278,542
0.278,543
0.278,542
0.278,540
0.278,538
0.278,535
0.281,531
0.281,526
0.281,521
0.281,515
0.282,510
0.282,505
0.283,499
0.283,494
0.283,488
0.283,483
0.283,478
0.283,473
0.283,470
0.286,467
0.286,464
0.286,461
0.286,460
0.286,458
0.286,458
0.289,458
0.289,458
0.289,459
0.289,461
0.289,463
0.289,466
0.291,470
0.291,474
0.291,479
0.291,485
0.291,491
0.291,497
0.291,503
0.294,510
0.294,516
0.294,522
0.294,528
0.294,534
0.295,538
0.297,542
0.297,545
0.297,548
0.297,549
0.297,548
0.297,548
0.297,546
0.3,543
0.3,539
0.3,535
0.3,530
0.3,525
0.3,519
0.302,513
0.302,507
0.302,502
0.302,496
0.302,491
0.302,485
0.305,480
0.305,475
0.305,469
0.305,464
0.305,458
0.305,454
0.306,451
0.308,448
0.308,447
0.308,446
0.308,446
0.308,447
0.308,448
0.31,450
0.311,452
0.311,455
0.311,458
0.311,462
0.311,467
0.311,473
0.313,480
0.313,487
0.313,495
0.313,502
0.313,510
0.314,516
0.316,522
0.316,525
0.316,528
0.316,530
0.316,534
0.317,541
0.319,549
0.319,557
0.319,564
0.319,568
0.319,570
0.319,569
0.32,566
0.321,560
0.321,555
0.321,549
0.321,543
0.321,537
0.322,531
0.324,525
0.324,520
0.324,515
0.324,510
0.324,504
0.325,500
0.325,496
0.326,492
0.326,489
0.327,486
0.327,485
0.327,484
0.327,484
0.329,485
0.329,486
0.329,487
0.329,489
0.33,492
0.33,495
0.332,499
0.332,504
0.332,508
0.332,512
0.332,517
0.332,522
0.332,527
0.334,533
0.334,537
0.334,541
0.335,545
0.335,548
0.335,551
0.338,552
0.338,554
0.338,554
0.338,553
0.338,552
0.338,550
0.338,548
0.34,544
0.34,540
0.34,535
0.34,531
0.34,526
0.34,521
0.343,516
0.343,511
0.343,507
0.343,502
0.343,498
0.343,495
0.346,491
0.346,487
0.346,483
0.346,480
0.346,478
0.346,477
0.346,477
0.349,477
0.349,477
0.349,478
0.349,480
0.349,482
0.349,484
0.351,487
0.351,491
0.351,495
0.351,500
0.352,506
0.352,512
0.352,518
0.354,524
0.354,529
0.354,535
0.354,540
0.354,546
0.354,550
0.357,554
0.357,557
0.357,559
0.357,561
0.357,562
0.357,561
0.359,560
0.359,558
0.359,554
0.359,550
0.36,544
0.36,539
0.36,533
0.362,527
0.362,521
0.362,515
0.362,509
0.362,504
0.362,499
0.365,494
0.365,490
0.365,486
0.365,483
0.365,480
0.365,478
0.365,477
0.368,475
0.368,474
0.368,474
0.368,475
0.368,477
0.368,480
0.37,482
0.37,486
0.371,489
0.371,491
0.371,493
0.371,496
0.373,500
0.373,504
0.373,509
0.373,514
0.373,520
0.373,526
0.373,532
0.376,537
0.376,542
0.376,547
0.376,551
0.376,553
0.376,555
0.379,556
0.379,557
0.379,556
0.379,554
0.379,552
0.379,548
0.379,544
0.381,539
0.381,534
0.381,528
0.381,522
0.381,517
0.381,511
0.384,505
0.384,500
0.384,496
0.384,492
0.384,488
0.384,484
0.387,481
0.387,478
0.387,476
0.387,475
0.387,474
0.387,473
0.388,473
0.389,474
0.389,475
0.389,477
0.389,480
0.389,483
0.389,487
0.392,491
0.392,496
0.392,501
0.392,507
0.392,513
0.393,520
0.393,526
0.395,533
0.395,538
0.395,544
0.395,549
0.395,552
0.395,554
0.398,557
0.398,559
0.398,560
0.398,559
0.398,558
0.398,556
0.4,553
0.4,547
0.4,541
0.4,535
0.4,528
0.4,522
0.4,516
0.403,509
0.403,502
0.403,495
0.403,490
0.403,486
0.403,482
0.406,478
0.406,474
0.406,470
0.406,467
0.406,465
0.406,463
0.406,463
0.408,464
0.408,464
0.408,466
0.408,468
0.408,470
0.408,472
0.411,474
0.411,478
0.411,482
0.411,488
0.411,495
0.411,503
0.413,512
0.413,519
0.414,526
0.414,533
0.414,539
0.414,545
0.414,550
0.416,554
0.416,558
0.416,560
0.416,562
0.417,563
0.417,563
0.419,563
0.419,561
0.419,558
0.419,554
0.419,549
0.419,544
0.419,538
0.421,533
0.422,527
0.422,522
0.422,516
0.422,511
0.422,505
0.425,500
0.425,496
0.425,491
0.425,486
0.425,481
0.425,475
0.427,468
0.427,461
0.428,454
0.428,448
0.428,444
0.428,440
0.428,438
0.43,436
0.43,435
0.43,435
0.43,435
0.43,436
0.43,436
0.433,435
0.433,435
0.433,437
0.433,445
0.433,460
0.433,478
0.434,494
0.435,505
0.436,515
0.436,524
0.436,532
0.436,537
0.436,541
0.438,542
0.438,543
0.438,543
0.438,543
0.438,543
0.438,541
0.441,539
0.441,537
0.441,537
0.441,539
0.441,542
0.441,543
0.441,541
0.444,538
0.444,534
0.445,529
0.445,525
0.445,521
0.445,516
0.446,512
0.446,509
0.446,507
0.446,505
0.446,503
0.447,502
0.447,501
0.449,501
0.449,501
0.449,502
0.449,504
0.449,505
0.45,507
0.452,510
0.452,514
0.452,518
0.452,521
0.452,526
0.452,530
0.455,535
0.455,539
0.455,543
0.455,548
0.455,551
0.455,554
0.455,557
0.457,559
0.457,560
0.457,560
0.457,561
0.457,561
0.457,561
0.46,559
0.461,557
0.461,553
0.461,548
0.461,544
0.461,539
0.461,534
0.463,528
0.463,523
0.463,517
0.463,510
0.463,504
0.464,499
0.465,493
0.465,488
0.465,483
0.466,480
0.466,477
0.466,475
0.468,474
0.468,473
0.468,472
0.468,472
0.468,471
0.468,471
0.468,472
0.471,474
0.471,476
0.471,480
0.471,485
0.471,492
0.471,498
0.474,505
0.474,512
0.474,518
0.474,523
0.474,528
0.474,533
0.475,538
0.477,543
0.477,547
0.477,550
0.477,551
0.477,552
0.478,551
0.479,549
0.479,546
0.479,542
0.48,537
0.48,532
0.48,527
0.481,522
0.482,518
0.482,514
0.482,510
0.482,506
0.482,503
0.482,498
0.484,494
0.485,490
0.485,486
0.485,482
0.485,480
0.485,478
0.487,476
0.487,476
0.487,475
0.487,474
0.487,473
0.488,473
0.488,473
0.49,474
0.49,476
0.49,477
0.49,478
0.49,481
0.49,484
0.492,489
0.493,494
0.493,500
0.493,506
0.493,513
0.493,519
0.495,525
0.495,530
0.495,535
0.495,540
0.495,544
0.495,547
0.496,549
0.498,550
0.498,550
0.498,549
0.498,549
0.498,548
0.498,545
0.5,542
0.501,538
0.501,533
0.501,528
0.501,523
0.501,517
0.501,512
0.503,507
0.503,503
0.504,499
0.504,495
0.504,492
0.504,489
0.506,486
0.506,482
0.506,479
0.506,475
0.506,472
0.506,471
0.509,471
0.509,472
0.509,474
0.509,476
0.509,477
0.509,477
0.509,477
0.511,479
0.511,480
0.511,484
0.511,490
0.511,498
0.512,506
0.514,514
0.514,522
0.514,529
0.514,535
0.514,542
0.514,548
0.514,553
0.517,558
0.517,562
0.517,565
0.517,566
0.517,567
0.517,566
0.519,564
0.519,560
0.519,555
0.52,549
0.52,543
0.52,538
0.522,534
0.522,530
0.522,526
0.522,521
0.522,517
0.522,513
0.522,509
0.525,505
0.525,501
0.525,496
0.525,493
0.525,490
0.525,488
0.528,487
0.528,486
0.528,486
0.528,487
0.528,488
0.528,491
0.528,494
0.531,499
0.531,503
0.531,508
0.531,513
0.531,520
0.531,526
0.533,534
0.533,543
0.533,552
0.534,561
0.534,568
0.534,574
0.536,580
0.536,585
0.536,588
0.536,592
0.536,593
0.537,595
0.537,594
0.539,591
0.539,587
0.539,583
0.539,577
0.54,572
0.54,566
0.541,559
0.541,552
0.541,544
0.541,538
0.542,531
0.542,526
0.542,523
0.544,519
0.544,516
0.544,513
0.544,509
0.544,506
0.544,502
0.546,499
0.546,495
0.547,492
0.547,489
0.547,487
0.547,485
0.549,483
0.549,482
0.549,481
0.549,482
0.55,484
0.55,487
0.55,490
0.552,492
0.552,495
0.552,499
0.552,508
0.552,522
0.552,539
0.554,556
0.555,569
0.555,579
0.555,586
0.555,591
0.555,593
0.555,593
0.557,592
0.557,590
0.557,589
0.558,586
0.558,583
0.558,581
0.56,578
0.56,574
0.56,570
0.56,567
0.56,565
0.56,564
0.563,562
0.563,560
0.563,556
0.563,550
0.563,544
0.563,537
0.563,530
0.565,523
0.566,516
0.566,511
0.566,508
0.566,505
0.566,503
0.569,501
0.569,500
0.569,498
0.569,498
0.569,500
0.569,504
0.569,509
0.571,515
0.571,521
0.571,528
0.572,533
0.572,537
0.572,541
0.574,545
0.574,549
0.574,553
0.574,559
0.574,563
0.574,566
0.576,568
0.577,569
0.577,569
0.577,568
0.577,565
0.577,564
0.577,563
0.579,563
0.579,564
0.579,565
0.58,565
0.58,564
0.58,562
0.582,559
0.582,556
0.582,553
0.582,549
0.582,543
0.582,538
0.583,533
0.585,529
0.585,526
0.585,523
0.585,522
0.585,522
0.585,523
0.587,526
0.588,528
0.588,529
0.588,529
0.588,530
0.588,530
0.59,531
0.59,533
0.59,535
0.59,536
0.591,538
0.591,542
0.591,547
0.593,554
0.593,561
0.593,567
0.593,574
0.593,579
0.593,584
0.596,588
0.596,591
0.596,593
0.596,594
0.596,594
0.596,595
0.596,595
0.598,596
0.598,596
0.599,595
0.599,592
0.599,588
0.599,584
0.601,578
0.601,572
0.601,565
0.601,556
0.601,549
0.602,543
0.604,538
0.604,532
0.604,528
0.604,527
0.605,525
0.605,525
0.605,524
0.607,522
0.607,519
0.607,515
0.607,511
0.607,508
0.607,504
0.609,503
0.609,503
0.609,505
0.609,507
0.609,511
0.609,514
0.61,518
0.612,525
0.612,532
0.612,541
0.612,551
0.612,561
0.612,570
0.615,578
0.615,586
0.615,592
0.615,596
0.615,599
0.615,601
0.617,601
0.617,600
0.617,600
0.618,599
0.618,597
0.618,594
0.618,591
0.62,586
0.62,580
0.62,573
0.62,565
0.62,556
0.621,548
0.623,540
0.623,532
0.623,523
0.623,515
0.623,508
0.623,505
0.623,506
0.626,506
0.626,506
0.626,506
0.626,507
0.626,509
0.626,512
0.628,517
0.628,521
0.628,527
0.629,532
0.629,537
0.629,540
0.631,544
0.631,546
0.631,549
0.631,553
0.631,556
0.631,559
0.631,562
0.634,565
0.634,568
0.634,572
0.634,575
0.634,578
0.634,581
0.636,584
0.637,586
0.637,587
0.637,588
0.637,590
0.637,593
0.637,597
0.639,600
0.639,600
0.639,599
0.639,597
0.64,593
0.64,587
0.642,581
0.642,574
0.642,567
0.642,561
0.642,555
0.642,550
0.644,545
0.645,542
0.645,540
0.645,538
0.645,538
0.645,538
0.645,538
0.647,538
0.647,539
0.647,538
0.648,538
0.648,537
0.648,536
0.65,536
0.65,537
0.65,540
0.65,544
0.65,551
0.65,559
0.651,568
0.653,579
0.653,591
0.653,605
0.653,617
0.653,629
0.653,639
0.655,647
0.656,652
0.656,656
0.656,658
0.656,659
0.656,660
0.658,662
0.658,663
0.658,664
0.659,663
0.659,660
0.659,655
0.659,647
0.661,637
0.661,627
0.661,617
0.661,607
0.661,598
0.661,593
0.664,587
0.664,581
0.664,577
0.664,573
0.664,569
0.664,565
0.664,559
0.666,556
0.667,557
0.667,558
0.667,560
0.667,563
0.667,565
0.669,567
0.669,568
0.669,570
0.669,573
0.669,576
0.67,582
0.672,590
0.672,599
0.672,610
0.672,616
0.672,622
0.672,629
0.672,638
0.675,645
0.675,654
0.675,662
0.675,669
0.675,676
0.675,681
0.677,684
0.677,685
0.677,683
0.677,679
0.678,674
0.678,670
0.678,669
0.68,668
0.68,666
0.68,665
0.68,666
0.68,668
0.68,669
0.683,668
0.683,665
0.683,660
0.683,657
0.683,654
0.683,650
0.685,648
0.685,645
0.686,640
0.686,631
0.686,622
0.686,614
0.686,608
0.688,606
0.688,607
0.688,608
0.688,610
0.688,612
0.689,615
0.691,619
0.691,623
0.691,627
0.691,630
0.691,632
0.691,636
0.691,642
0.693,647
0.694,652
0.694,658
0.694,664
0.694,669
0.694,671
0.696,672
0.696,673
0.696,672
0.697,668
0.697,663
0.697,657
0.699,652
0.699,646
0.699,639
0.699,632
0.699,625
0.699,616
0.699,608
0.702,601
0.702,593
0.702,586
0.702,579
0.702,572
0.702,565
0.704,558
0.705,553
0.705,549
0.705,547
0.705,548
0.705,553
0.705,557
0.707,559
0.707,560
0.707,560
0.707,559
0.708,557
0.708,557
0.71,557
0.71,557
0.71,557
0.71,560
0.71,566
0.711,575
0.713,586
0.713,597
0.713,609
0.713,620
0.713,633
0.713,647
0.713,659
0.715,668
0.715,673
0.716,676
0.716,678
0.716,678
0.716,674
0.718,669
0.718,664
0.718,658
0.718,653
0.719,649
0.719,645
0.719,637
0.721,627
0.721,615
0.721,605
0.721,596
0.721,588
0.721,580
0.724,573
0.724,566
0.724,562
0.724,562
0.724,565
0.725,566
0.726,566
0.726,563
0.727,561
0.727,560
0.727,559
0.727,560
0.727,563
0.729,566
0.729,568
0.729,571
0.73,575
0.73,581
0.73,587
0.732,592
0.732,597
0.732,603
0.732,612
0.732,619
0.732,624
0.732,630
0.734,638
0.735,651
0.735,664
0.735,676
0.735,686
0.735,693
0.737,696
0.737,697
0.737,694
0.737,689
0.738,683
0.738,674
0.74,665
0.74,654
0.74,642
0.74,630
0.74,618
0.74,605
0.741,591
0.742,578
0.743,569
0.743,565
0.743,570
0.743,581
0.743,595
0.745,606
0.745,615
0.745,623
0.746,632
0.746,639
0.746,646
0.746,651
0.748,658
0.748,664
0.748,668
0.748,671
0.749,671
0.749,668
0.751,662
0.751,656
0.751,654
0.751,653
0.751,654
0.751,655
0.753,656
0.754,656
0.754,654
0.754,651
0.754,646
0.754,638
0.754,630
0.756,623
0.756,619
0.756,617
0.756,616
0.757,616
0.757,618
0.759,621
0.759,625
0.76,630
0.76,635
0.76,637
0.76,636
0.76,633
0.762,627
0.762,621
0.762,614
0.762,607
0.762,598
0.762,587
0.765,573
0.765,560
0.765,551
0.765,549
0.765,553
0.766,561
0.767,569
0.767,578
0.768,592
0.768,607
0.768,622
0.768,636
0.768,646
0.77,652
0.77,657
0.77,660
0.771,662
0.771,666
0.771,672
0.773,681
0.773,693
0.773,706
0.773,713
0.773,714
0.773,712
0.773,707
0.776,700
0.776,693
0.776,689
0.776,689
0.776,688
0.777,687
0.778,687
0.779,688
0.779,691
0.779,695
0.779,699
0.779,703
0.781,707
0.781,708
0.781,707
0.781,702
0.781,691
0.782,676
0.782,658
0.784,637
0.784,619
0.784,604
0.784,593
0.784,586
0.784,581
0.787,577
0.787,572
0.787,567
0.787,562
0.787,555
0.787,550
0.787,546
0.789,543
0.789,540
0.789,540
0.789,545
0.789,553
0.789,564
0.792,578
0.792,591
0.792,599
0.792,602
0.792,602
0.792,603
0.794,606
0.794,611
0.794,621
0.795,633
0.795,647
0.795,660
0.795,670
0.797,679
0.797,686
0.797,688
0.797,686
0.797,681
0.797,673
0.799,665
0.8,657
0.8,649
0.8,640
0.8,632
0.8,621
0.8,607
0.802,592
0.802,578
0.803,566
0.803,558
0.803,555
0.803,553
0.806,548
0.806,544
0.806,539
0.806,533
0.806,529
0.806,526
0.808,525
0.808,526
0.808,528
0.808,530
0.808,532
0.808,532
0.808,532
0.81,531
0.81,531
0.81,533
0.81,539
0.81,548
0.811,560
0.814,576
0.814,595
0.814,614
0.814,632
0.814,646
0.814,655
0.814,663
0.817,669
0.817,673
0.817,676
0.817,680
0.817,684
0.817,686
0.819,681
0.819,672
0.819,661
0.819,650
0.819,638
0.819,626
0.822,613
0.822,601
0.822,590
0.822,580
0.822,573
0.822,569
0.822,567
0.824,567
0.824,567
0.824,566
0.825,564
0.825,560
0.825,557
0.827,553
0.827,548
0.827,541
0.827,533
0.827,526
0.827,523
0.828,523
0.83,526
0.83,530
0.83,536
0.83,545
0.83,556
0.83,567
0.833,579
0.833,587
0.833,595
0.833,600
0.833,603
0.833,606
0.836,607
0.836,607
0.836,607
0.836,607
0.836,605
0.836,602
0.836,598
0.838,591
0.838,585
0.838,580
0.839,572
0.839,565
0.839,558
0.841,554
0.841,551
0.841,551
0.841,553
0.841,556
0.841,556
0.842,555
0.844,554
0.844,552
0.844,546
0.845,543
0.845,544
0.845,546
0.846,546
0.846,543
0.847,540
0.847,538
0.847,539
0.847,540
0.849,541
0.849,544
0.849,550
0.849,557
0.849,562
0.849,562
0.85,559
0.852,551
0.852,541
0.852,530
0.852,522
0.852,517
0.852,514
0.854,516
0.855,521
0.855,529
0.855,536
0.855,542
0.855,548
0.855,555
0.857,560
0.857,563
0.857,564
0.857,564
0.857,563
0.857,561
0.86,560
0.86,556
0.861,550
0.861,543
0.861,535
0.861,529
0.863,525
0.863,524
0.863,527
0.863,535
0.863,547
0.863,556
0.863,560
0.865,560
0.865,555
0.865,540
0.865,514
0.865,484
0.865,460
0.868,442
0.868,427
0.868,416
0.868,408
0.868,405
0.868,407
0.868,415
0.871,425
0.871,434
0.871,443
0.871,451
0.871,458
0.871,467
0.874,478
0.874,490
0.874,502
0.874,512
0.874,521
0.874,528
0.876,535
0.876,537
0.876,537
0.876,535
0.876,534
0.876,533
0.876,531
0.879,529
0.879,526
0.88,521
0.88,514
0.88,506
0.88,498
0.882,488
0.882,479
0.882,472
0.882,469
0.882,467
0.882,467
0.882,469
0.885,475
0.885,480
0.885,484
0.886,485
0.886,484
0.886,480
0.887,474
0.887,470
0.887,464
0.887,459
0.887,454
0.887,450
0.889,449
0.889,450
0.889,450
0.89,450
0.89,450
0.89,451
0.89,451
0.892,451
0.892,453
0.892,458
0.892,467
0.892,480
0.893,495
0.895,509
0.895,521
0.895,531
0.895,534
0.895,532
0.895,529
0.895,525
0.897,518
0.898,513
0.898,511
0.898,509
0.898,506
0.898,506
0.9,507
0.9,512
0.9,518
0.9,523
0.901,525
0.901,526
0.903,526
0.903,526
0.903,524
0.903,520
0.903,515
0.903,507
0.903,497
0.906,482
0.906,462
0.906,442
0.906,425
0.906,413
0.906,406
0.909,401
0.909,400
0.909,400
0.909,402
0.909,407
0.909,415
0.909,426
0.911,438
0.911,450
0.911,460
0.911,470
0.911,479
0.911,487
0.915,494
0.915,501
0.915,509
0.915,513
0.915,516
0.915,518
0.917,523
0.917,529
0.917,534
0.918,538
0.918,539
0.918,539
0.918,539
0.92,540
0.92,542
0.92,542
0.92,542
0.921,542
0.921,543
0.923,542
0.923,535
0.923,523
0.923,507
0.923,490
0.923,472
0.923,455
0.925,440
0.925,426
0.926,414
0.926,406
0.926,405
0.926,410
0.928,417
0.928,425
0.928,432
0.928,439
0.928,445
0.929,449
0.931,452
0.931,456
0.931,457
0.931,454
0.931,450
0.932,449
0.932,452
0.934,459
0.934,468
0.934,478
0.934,487
0.934,497
0.934,506
0.936,512
0.936,519
0.936,526
0.936,531
0.936,535
0.936,540
0.936,545
0.939,551
0.939,557
0.939,560
0.939,560
0.939,553
0.939,542
0.942,531
0.942,522
0.942,513
0.942,503
0.942,490
0.942,473
0.944,456
0.944,439
0.944,424
0.945,412
0.945,402
0.945,393
0.945,387
0.947,382
0.947,380
0.947,379
0.947,376
0.947,374
0.947,374
0.95,378
0.95,384
0.95,389
0.95,393
0.95,396
0.95,400
0.95,404
0.953,412
0.953,421
0.953,432
0.953,445
0.953,458
0.953,469
0.955,479
0.955,487
0.955,495
0.955,501
0.956,509
0.956,519
0.958,528
0.958,535
0.958,540
0.958,542
0.958,541
0.959,539
0.959,532
0.961,519
0.961,504
0.961,488
0.961,475
0.961,463
0.961,454
0.964,449
0.964,445
0.964,439
0.964,434
0.964,430
0.964,425
0.964,419
0.966,410
0.966,403
0.966,399
0.966,396
0.966,395
0.966,396
0.969,402
0.969,412
0.969,421
0.969,425
0.969,425
0.969,419
0.972,409
0.972,398
0.972,391
0.972,389
0.972,391
0.972,396
0.972,403
0.974,412
0.974,420
0.974,429
0.974,438
0.974,445
0.974,451
0.977,456
0.977,460
0.977,463
0.977,465
0.978,467
0.978,468
0.978,467
0.98,466
0.98,464
0.98,460
0.98,455
0.98,449
0.98,444
0.983,437
0.983,430
0.983,423
0.983,416
0.983,409
0.983,402
0.985,395
0.985,389
0.985,384
0.985,385
0.985,386
0.985,387
0.985,385
0.988,384
0.988,382
0.988,382
0.988,385
0.988,390
0.988,398
0.99,408
0.99,418
0.99,428
0.99,439
0.99,451
0.99,462
0.991,472
0.993,479
0.993,484
0.994,488
0.994,489
0.994,491
0.994,494
0.996,502
0.996,515
0.996,530
0.996,546
0.996,562
0.996,575
0.999,582
0.999,577
0.999,566
0.999,553
0.999,542
0.999,531
0.999,522
1.002,516
1.002,511
1.002,505
1.002,498
1.002,486
1.002,473
1.004,459
1.004,441
1.004,421
1.004,403
1.004,391
1.004,384
1.004,380
1.007,378
1.007,377
1.007,376
1.007,376
1.007,378
1.007,381
1.009,383
1.009,385
1.01,385
1.01,386
1.01,386
1.01,388
1.012,393
1.012,403
1.012,416
1.012,431
1.012,445
1.012,457
1.013,468
1.015,477
1.015,483
1.015,488
1.015,492
1.015,494
1.015,495
1.018,495
1.018,495
1.018,493
1.018,491
1.018,487
1.018,482
1.019,476
1.021,469
1.021,460
1.021,451
1.021,443
1.021,435
1.022,426
1.023,417
1.023,409
1.023,403
1.023,398
1.023,396
1.023,397
1.026,402
1.026,409
1.026,417
1.026,423
1.026,427
1.026,429
1.026,431
1.029,433
1.029,434
1.029,436
1.029,438
1.029,440
1.029,441
1.032,443
1.032,445
1.032,447
1.032,450
1.032,454
1.032,459
1.032,462
1.034,465
1.034,468
1.034,472
1.034,476
1.034,479
1.034,480
1.037,479
1.037,476
1.037,472
1.037,468
1.037,463
1.037,457
1.04,450
1.04,441
1.04,429
1.04,412
1.04,389
1.041,358
1.041,325
1.042,290
1.042,257
1.042,225
1.042,195
1.042,162
1.043,127
1.044,92
1.044,67
1.044,44
1.044,25
1.045,9
1.045,4
1.045,4
1.045,4
1.045,4
1.047,5
1.047,4
1.047,5
1.047,4
1.047,4
1.047,4
1.047,4
1.047,4
1.047,5
1.047,4
1.047,5
1.05,11
1.05,33
1.05,66
1.05,108
1.05,161
1.051,215
1.051,269
1.052,324
1.053,383
1.053,444
1.053,500
1.053,544
1.053,577
1.053,599
1.055,609
1.055,612
1.056,613
1.056,613
1.056,613
1.056,612
1.058,610
1.058,607
1.058,604
1.058,600
1.058,595
1.059,587
1.061,577
1.061,566
1.061,555
1.061,545
1.061,534
1.061,524
1.061,514
1.064,504
1.064,493
1.064,480
1.064,467
1.064,455
1.064,443
1.067,433
1.067,424
1.067,416
1.067,410
1.067,406
1.067,403
1.068,400
1.07,398
1.07,397
1.07,395
1.07,393
1.07,390
1.07,386
1.072,382
1.072,381
1.072,381
1.072,382
1.072,382
1.073,382
1.075,380
1.075,376
1.075,371
1.075,366
1.075,361
1.075,356
1.076,351
1.077,344
1.077,337
1.077,329
1.077,321
1.077,313
1.078,306
1.081,300
1.081,298
1.081,306
1.081,323
1.081,345
1.081,364
1.081,377
1.083,386
1.083,393
1.083,399
1.083,406
1.083,413
1.083,417
1.086,416
1.086,411
1.086,404
1.086,396
1.086,389
1.087,382
1.089,376
1.089,370
1.089,367
1.089,365
1.089,365
1.09,365
1.09,365
1.091,365
1.091,367
1.091,370
1.091,373
1.091,377
1.091,382
1.094,387
1.094,393
1.094,399
1.094,404
1.094,409
1.094,414
1.094,418
1.096,422
1.096,424
1.096,425
1.096,424
1.096,423
1.097,421
1.099,419
1.099,416
1.099,411
1.099,406
1.099,400
1.099,393
1.101,386
1.101,378
1.101,370
1.103,362
1.103,355
1.103,347
1.103,339
1.105,333
1.105,326
1.105,321
1.105,316
1.105,311
1.105,308
1.108,306
1.108,306
1.108,305
1.108,306
1.108,307
1.108,308
1.108,310
1.11,313
1.11,316
1.111,321
1.111,328
1.111,335
1.111,345
1.113,358
1.113,372
1.113,386
1.113,398
1.113,407
1.113,412
1.116,415
1.116,416
1.116,418
1.116,420
1.116,422
1.116,425
1.116,428
1.119,430
1.119,429
1.119,427
1.119,423
1.12,418
1.12,412
1.121,407
1.121,401
1.121,394
1.121,387
1.121,379
1.121,372
1.121,364
1.124,356
1.124,349
1.124,342
1.124,335
1.124,328
1.125,322
1.126,317
1.126,311
1.127,305
1.127,297
1.127,289
1.127,283
1.129,278
1.129,273
1.129,270
1.129,268
1.129,267
1.129,268
1.129,271
1.132,278
1.132,286
1.132,295
1.132,304
1.132,313
1.132,324
1.135,335
1.135,349
1.135,363
1.135,380
1.135,401
1.136,424
1.136,448
1.138,471
1.138,490
1.138,505
1.138,514
1.138,516
1.138,516
1.14,514
1.14,511
1.14,506
1.14,501
1.14,494
1.14,487
1.143,479
1.143,470
1.143,462
1.143,455
1.143,447
1.143,440
1.144,433
1.146,426
1.146,420
1.146,414
1.146,407
1.146,400
1.146,392
1.148,384
1.148,378
1.148,374
1.148,369
1.148,363
1.148,350
1.148,332
1.151,310
1.151,285
1.151,260
1.151,237
1.151,215
1.151,194
1.154,175
1.154,157
1.154,139
1.154,121
1.154,103
1.154,87
1.154,79
1.157,75
1.157,78
1.157,86
1.157,98
1.157,111
1.157,127
1.157,148
1.159,176
1.159,223
1.159,291
1.159,368
1.159,432
1.159,483
1.162,519
1.162,541
1.162,557
1.162,568
1.162,575
1.162,577
1.162,574
1.165,568
1.165,558
1.165,545
1.165,530
1.165,513
1.165,496
1.168,483
1.168,475
1.168,473
1.168,477
1.168,478
1.168,479
1.168,481
1.17,485
1.17,489
1.17,488
1.17,484
1.17,479
1.17,476
1.173,474
1.173,473
1.173,473
1.173,474
1.173,476
1.173,478
1.176,477
1.176,474
1.176,470
1.176,464
1.176,456
1.176,446
1.177,431
1.178,412
1.178,388
1.178,361
1.179,334
1.179,308
1.179,283
1.181,259
1.181,236
1.181,213
1.181,192
1.181,175
1.181,165
1.181,161
1.184,161
1.184,165
1.184,170
1.184,176
1.184,183
1.184,194
1.187,212
1.187,237
1.187,269
1.187,316
1.187,376
1.187,433
1.189,473
1.189,496
1.189,509
1.189,516
1.189,520
1.189,521
1.19,518
1.192,515
1.192,512
1.192,508
1.192,505
1.192,502
1.192,501
1.194,500
1.194,496
1.195,490
1.195,482
1.195,474
1.195,465
1.195,458
1.198,451
1.198,445
1.198,439
1.198,434
1.198,430
1.198,427
1.2,425
1.2,421
1.2,415
1.2,407
1.2,398
1.201,385
1.203,371
1.203,356
1.203,344
1.203,337
1.203,333
1.203,330
1.204,328
1.206,326
1.206,324
1.206,323
1.206,319
1.206,314
1.207,307
1.208,299
1.208,292
1.208,288
1.208,288
1.208,297
1.208,310
1.209,326
1.21,347
1.21,371
1.211,398
1.211,425
1.211,448
1.211,467
1.213,481
1.213,491
1.213,499
1.213,505
1.213,511
1.214,518
1.215,523
1.216,526
1.216,528
1.216,530
1.216,531
1.216,532
1.216,533
1.218,531
1.218,530
1.218,529
1.219,526
1.219,522
1.219,517
1.221,511
1.221,504
1.221,497
1.221,488
1.221,481
1.221,475
1.221,469
1.224,462
1.224,453
1.224,446
1.224,439
1.224,431
1.224,422
1.226,413
1.227,407
1.227,402
1.227,397
1.227,392
1.227,390
1.23,391
1.23,395
1.23,401
1.23,407
1.23,414
1.23,419
1.23,424
1.233,429
1.233,434
1.233,439
1.233,444
1.233,449
1.233,455
1.236,461
1.236,468
1.236,476
1.236,483
1.236,490
1.236,495
1.236,499
1.238,504
1.238,508
1.238,512
1.238,515
1.238,518
1.238,520
1.241,523
1.241,526
1.241,526
1.241,523
1.241,518
1.241,510
1.244,501
1.244,490
1.244,478
1.244,467
1.244,456
1.244,447
1.244,439
1.246,433
1.246,430
1.246,425
1.246,420
1.246,413
1.246,406
1.249,400
1.249,394
1.249,389
1.249,386
1.249,384
1.249,382
1.249,378
1.252,369
1.252,359
1.252,351
1.252,349
1.252,348
1.252,348
1.255,349
1.255,351
1.255,353
1.255,354
1.255,353
1.255,352
1.257,352
1.257,352
1.257,352
1.257,354
1.257,356
1.257,361
1.257,377
1.26,400
1.26,423
1.26,441
1.26,451
1.26,454
1.26,453
1.263,453
1.263,454
1.263,453
1.263,449
1.263,441
1.263,430
1.263,419
1.265,406
1.265,394
1.265,385
1.265,377
1.265,374
1.265,372
1.268,371
1.268,370
1.268,368
1.268,365
1.268,362
1.268,359
1.271,357
1.271,357
1.271,358
1.271,362
1.271,368
1.272,374
1.272,379
1.273,386
1.273,392
1.273,398
1.274,401
1.274,403
1.274,404
1.276,401
1.276,398
1.277,395
1.277,393
1.277,390
1.277,385
1.277,378
1.279,372
1.279,368
1.279,362
1.279,355
1.279,345
1.279,334
1.282,323
1.282,314
1.282,307
1.282,303
1.282,302
1.282,305
1.285,315
1.285,329
1.285,342
1.285,351
1.285,355
1.285,356
1.285,356
1.287,358
1.287,361
1.287,363
1.287,365
1.288,365
1.288,362
1.29,356
1.29,348
1.29,341
1.29,336
1.29,333
1.29,333
1.29,337
1.293,341
1.293,344
1.293,346
1.293,347
1.293,349
1.293,352
1.295,354
1.295,357
1.295,359
1.295,358
1.295,355
1.295,352
1.298,348
1.298,341
1.298,333
1.298,325
1.298,319
1.298,317
1.298,317
1.301,318
1.301,319
1.301,320
1.301,319
1.301,316
1.301,313
1.303,313
1.303,317
1.303,323
1.303,331
1.303,343
1.303,357
1.303,367
1.306,372
1.306,374
1.306,373
1.306,372
1.306,371
1.306,371
1.309,370
1.309,370
1.309,372
1.309,372
1.309,373
1.309,370
1.311,368
1.311,366
1.311,366
1.312,368
1.312,371
1.312,374
1.312,378
1.315,381
1.315,383
1.315,384
1.315,386
1.315,391
1.315,395
1.317,401
1.317,408
1.317,416
1.317,423
1.317,431
1.317,441
1.317,450
1.32,452
1.32,446
1.32,432
1.32,413
1.32,392
1.32,375
1.323,361
1.323,348
1.323,338
1.323,331
1.323,323
1.323,313
1.325,301
1.325,289
1.325,276
1.325,264
1.325,253
1.325,245
1.325,242
1.328,247
1.328,265
1.328,289
1.328,311
1.328,327
1.329,341
1.331,353
1.331,362
1.331,368
1.331,373
1.331,381
1.332,389
1.332,398
1.334,406
1.334,413
1.334,417
1.334,420
1.334,424
1.334,429
1.336,435
1.336,440
1.336,446
1.336,451
1.336,456
1.336,459
1.339,462
1.339,465
1.339,470
1.339,473
1.339,471
1.339,467
1.339,464
1.342,458
1.342,451
1.342,442
1.342,434
1.342,424
1.342,412
1.344,398
1.344,383
1.344,369
1.344,359
1.344,350
1.344,345
1.344,343
1.347,344
1.347,349
1.347,356
1.347,360
1.347,364
1.347,368
1.349,373
1.349,376
1.35,378
1.35,379
1.35,375
1.35,369
1.353,363
1.353,361
1.353,365
1.353,371
1.353,375
1.353,379
1.353,385
1.355,396
1.355,411
1.355,427
1.355,442
1.355,457
1.355,473
1.358,487
1.358,500
1.358,509
1.358,513
1.358,511
1.358,503
1.358,491
1.361,477
1.361,467
1.361,458
1.361,450
1.361,444
1.362,441
1.363,437
1.363,435
1.363,430
1.363,421
1.363,412
1.364,405
1.366,400
1.366,395
1.366,388
1.366,383
1.366,378
1.366,376
1.366,372
1.368,368
1.369,364
1.369,358
1.369,353
1.369,348
1.369,347
1.371,348
1.371,353
1.371,361
1.371,369
1.371,379
1.371,390
1.371,403
1.374,417
1.374,433
1.374,448
1.374,459
1.374,466
1.374,474
1.377,486
1.377,497
1.377,502
1.378,502
1.378,503
1.378,506
1.38,506
1.38,502
1.38,497
1.381,493
1.381,493
1.381,492
1.382,492
1.383,490
1.383,489
1.383,492
1.383,496
1.383,499
1.383,499
1.385,499
1.385,502
1.385,512
1.385,524
1.385,529
1.385,527
1.385,516
1.387,502
1.387,489
1.387,475
1.387,461
1.388,448
1.388,435
1.391,430
1.391,428
1.391,432
1.391,441
1.391,451
1.391,461
1.393,472
1.393,483
1.393,490
1.393,493
1.393,495
1.394,497
1.394,501
1.395,508
1.396,517
1.396,524
1.396,528
1.396,531
1.396,538
1.399,547
1.399,559
1.399,568
1.399,571
1.399,568
1.399,563
1.399,559
1.401,554
1.401,549
1.401,546
1.401,544
1.401,542
1.401,538
1.404,532
1.404,523
1.404,516
1.405,509
1.405,497
1.405,477
1.407,456
1.407,439
1.407,426
1.407,414
1.407,405
1.407,404
1.407,410
1.41,423
1.41,444
1.41,470
1.41,492
1.41,508
1.41,517
1.413,522
1.413,527
1.413,537
1.413,553
1.413,572
1.414,589
1.414,599
1.415,603
1.415,606
1.415,609
1.415,613
1.415,614
1.415,614
1.417,614
1.417,616
1.418,616
1.418,614
1.418,611
1.418,607
1.42,593
1.42,567
1.42,531
1.42,492
1.42,462
1.42,438
1.42,417
1.423,400
1.423,391
1.423,390
1.423,398
1.423,412
1.423,424
1.426,434
1.426,443
1.426,453
1.426,475
1.426,507
1.426,538
1.426,565
1.428,589
1.428,610
1.428,631
1.429,649
1.429,663
1.429,675
1.431,686
1.431,690
1.431,683
1.431,669
1.431,654
1.431,640
1.434,630
1.434,620
1.434,611
1.434,604
1.434,598
1.434,583
1.434,562
1.437,542
1.437,524
1.437,509
1.437,495
1.437,478
1.437,464
1.44,461
1.44,474
1.44,492
1.44,504
1.44,504
1.44,497
1.44,492
1.442,498
1.443,512
1.443,526
1.443,542
1.443,562
1.443,587
1.445,615
1.445,648
1.445,684
1.445,721
1.445,753
1.446,778
1.448,790
1.448,791
1.448,787
1.448,783
1.448,779
1.448,771
1.448,760
1.451,747
1.451,737
1.451,727
1.451,715
1.451,698
1.451,674
1.453,644
1.453,612
1.453,579
1.453,549
1.453,521
1.453,491
1.453,461
1.456,432
1.456,393
1.456,341
1.456,283
1.456,236
1.456,206
1.459,195
1.459,201
1.459,219
1.459,237
1.46,253
1.46,266
1.461,281
1.461,300
1.461,329
1.462,370
1.462,419
1.462,466
1.462,511
1.464,545
1.464,568
1.464,583
1.464,598
1.464,612
1.464,621
1.467,617
1.467,598
1.467,567
1.467,532
1.467,500
1.467,476
1.467,463
1.47,467
1.47,487
1.47,512
1.47,536
1.47,564
1.47,601
1.472,637
1.472,669
1.472,694
1.472,714
1.472,730
1.472,749
1.475,778
1.475,806
1.475,827
1.475,835
1.475,834
1.475,830
1.475,821
1.478,802
1.478,774
1.478,746
1.479,724
1.479,709
1.479,692
1.481,668
1.481,634
1.481,584
1.481,521
1.481,451
1.481,381
1.481,314
1.483,261
1.483,222
1.483,185
1.483,144
1.483,101
1.483,66
1.485,46
1.485,33
1.485,34
1.485,51
1.485,92
1.485,167
1.485,288
1.486,411
1.489,521
1.489,613
1.489,693
1.489,765
1.489,824
1.49,862
1.491,869
1.491,855
1.491,834
1.491,819
1.491,810
1.492,801
1.494,782
1.494,759
1.495,748
1.495,751
1.495,758
1.495,765
1.495,773
1.497,783
1.497,800
1.497,821
1.497,840
1.497,853
1.497,854
1.5,842
1.5,825
1.5,804
1.5,776
1.5,752
1.5,729
1.5,713
1.502,700
1.502,682
1.502,658
1.502,634
1.502,607
1.502,584
1.505,571
1.505,567
1.505,568
1.505,575
1.505,589
1.505,606
1.508,613
1.508,617
1.508,628
1.508,639
1.508,644
1.508,648
1.509,653
1.51,658
1.511,662
1.511,656
1.511,641
1.511,621
1.511,603
1.513,589
1.513,575
1.513,565
1.513,559
1.513,559
1.514,560
1.514,564
1.515,566
1.516,561
1.516,549
1.516,536
1.516,534
1.516,541
1.518,543
1.518,534
1.518,521
1.518,506
1.519,492
1.519,478
1.521,462
1.521,446
1.521,432
1.521,413
1.521,387
1.521,365
1.521,353
1.523,353
1.524,367
1.524,393
1.524,421
1.524,441
1.524,458
1.526,482
1.526,499
1.526,500
1.526,482
1.527,459
1.527,441
1.527,434
1.529,426
1.529,405
1.529,379
1.529,361
1.529,346
1.53,328
1.532,313
1.532,300
1.532,292
1.532,299
1.532,326
1.532,370
1.535,419
1.535,468
1.535,514
1.535,559
1.535,595
1.535,630
1.535,665
1.538,693
1.538,711
1.538,724
1.538,738
1.538,747
1.539,757
1.54,775
1.54,798
1.54,805
1.54,791
1.54,771
1.54,750
1.54,728
1.543,707
1.543,690
1.543,673
1.543,657
1.543,647
1.543,636
1.546,621
1.546,607
1.546,596
1.546,582
1.546,567
1.546,549
1.549,526
1.549,501
1.549,483
1.549,483
1.549,504
1.549,548
1.549,602
1.551,653
1.551,690
1.551,714
1.551,730
1.552,741
1.552,740
1.554,725
1.554,700
1.554,678
1.554,666
1.554,663
1.554,673
1.555,686
1.556,697
1.556,710
1.556,723
1.556,737
1.556,742
1.556,739
1.559,736
1.559,729
1.559,716
1.559,705
1.559,698
1.559,692
1.562,692
1.562,694
1.562,695
1.562,693
1.562,686
1.562,676
1.562,664
1.565,652
1.565,640
1.565,623
1.565,599
1.565,583
1.565,562
1.568,533
1.568,511
1.568,495
1.569,470
1.569,440
1.569,419
1.569,406
1.57,401
1.57,406
1.57,427
1.57,457
1.57,483
1.57,515
1.573,548
1.573,575
1.573,602
1.573,639
1.573,676
1.573,695
1.576,694
1.576,679
1.576,655
1.576,629
1.576,612
1.576,602
1.577,594
1.578,584
1.578,578
1.578,578
1.578,592
1.578,623
1.578,653
1.581,672
1.581,681
1.581,674
1.581,655
1.581,635
1.581,616
1.582,601
1.583,593
1.583,595
1.584,610
1.584,623
1.584,621
1.584,603
1.587,575
1.587,540
1.587,510
1.587,487
1.587,464
1.587,447
1.589,439
1.589,447
1.589,465
1.589,483
1.59,502
1.59,522
1.59,544
1.592,574
1.592,611
1.592,637
1.592,656
1.592,681
1.592,710
1.595,734
1.595,754
1.595,767
1.595,775
1.595,774
1.596,770
1.596,758
1.597,733
1.597,705
1.597,673
1.597,641
1.597,609
1.597,586
1.6,570
1.6,550
1.6,518
1.6,483
1.6,449
1.601,423
1.602,411
1.603,412
1.603,427
1.603,453
1.603,475
1.603,491
1.603,500
1.605,505
1.605,503
1.606,504
1.606,508
1.606,508
1.606,495
1.608,479
1.608,464
1.608,447
1.608,432
1.608,434
1.609,461
1.609,500
1.611,536
1.611,569
1.611,601
1.611,633
1.612,661
1.612,682
1.613,697
1.614,703
1.614,701
1.614,695
1.614,686
1.614,679
1.616,679
1.616,677
1.616,674
1.616,674
1.616,684
1.616,706
1.616,733
1.619,748
1.619,752
1.619,750
1.619,743
1.619,728
1.619,708
1.622,688
1.622,671
1.622,655
1.622,644
1.622,640
1.622,641
1.622,651
1.625,661
1.625,664
1.625,657
1.625,650
1.625,645
1.625,641
1.627,638
1.628,633
1.628,625
1.628,610
1.628,590
1.628,575
1.63,568
1.63,568
1.63,564
1.63,562
1.63,564
1.63,564
1.63,566
1.633,573
1.633,577
1.633,578
1.633,578
1.634,578
1.634,570
1.636,558
1.636,545
1.636,526
1.636,503
1.636,478
1.636,449
1.636,418
1.638,386
1.638,367
1.638,376
1.638,391
1.638,400
1.638,422
1.641,456
1.641,489
1.641,521
1.641,555
1.641,593
1.641,634
1.644,676
1.644,697
1.644,698
1.644,690
1.645,684
1.645,677
1.645,665
1.646,655
1.646,651
1.646,651
1.646,651
1.647,652
1.647,653
1.649,656
1.649,661
1.649,666
1.649,671
1.649,676
1.649,681
1.649,686
1.652,692
1.652,695
1.652,695
1.652,701
1.652,707
1.652,702
1.655,690
1.655,677
1.655,660
1.655,639
1.655,617
1.655,588
1.657,558
1.657,527
1.657,486
1.657,437
1.657,391
1.657,354
1.657,327
1.66,301
1.66,279
1.66,267
1.66,267
1.661,268
1.661,270
1.663,288
1.663,333
1.663,393
1.663,440
1.663,461
1.663,484
1.663,513
1.665,547
1.665,597
1.665,653
1.665,703
1.665,743
1.665,773
1.668,791
1.668,800
1.668,801
1.668,798
1.668,797
1.668,789
1.671,773
1.671,750
1.671,729
1.671,715
1.671,707
1.671,703
1.671,702
1.674,702
1.674,703
1.674,707
1.674,716
1.674,733
1.674,747
1.676,755
1.676,761
1.677,771
1.677,776
1.677,769
1.677,758
1.677,755
1.679,762
1.679,778
1.679,799
1.679,817
1.679,815
1.679,796
1.682,766
1.682,728
1.682,685
1.682,638
1.682,589
1.682,539
1.685,498
1.685,460
1.685,427
1.685,402
1.685,384
1.685,380
1.686,390
1.687,400
1.687,409
1.687,424
1.687,435
1.687,455
1.687,482
1.69,502
1.69,515
1.69,543
1.69,585
1.69,622
1.69,652
1.69,680
1.692,707
1.692,728
1.692,744
1.692,758
1.692,762
1.693,757
1.695,749
1.695,742
1.695,731
1.695,714
1.695,702
1.696,700
1.698,706
1.698,712
1.698,723
1.698,740
1.698,755
1.698,760
1.698,754
1.701,745
1.701,738
1.701,729
1.701,717
1.701,702
1.701,691
1.703,688
1.703,691
1.703,695
1.704,691
1.704,676
1.704,658
1.704,638
1.706,619
1.706,608
1.706,611
1.706,614
1.706,604
1.706,591
1.708,584
1.709,583
1.709,584
1.709,585
1.709,592
1.709,602
1.711,610
1.711,614
1.711,607
1.711,598
1.712,592
1.712,581
1.712,560
1.714,537
1.714,521
1.714,516
1.714,519
1.714,529
1.714,541
1.717,540
1.717,525
1.717,502
1.717,479
1.717,463
1.717,468
1.717,493
1.72,530
1.72,564
1.72,588
1.72,598
1.72,594
1.72,583
1.723,579
1.723,585
1.723,587
1.723,579
1.724,565
1.724,554
1.725,549
1.725,546
1.725,547
1.725,556
1.726,565
1.726,570
1.726,574
1.728,582
1.728,592
1.728,598
1.728,605
1.728,614
1.728,622
1.731,628
1.731,630
1.731,629
1.731,629
1.731,628
1.731,629
1.731,633
1.733,644
1.733,659
1.733,668
1.733,672
1.733,673
1.733,674
1.736,677
1.736,678
1.736,673
1.736,661
1.736,641
1.736,619
1.739,600
1.739,584
1.739,558
1.739,519
1.739,467
1.739,413
1.739,359
1.742,308
1.742,277
1.742,271
1.742,279
1.742,301
1.742,340
1.744,394
1.745,469
1.745,558
1.745,629
1.745,670
1.745,690
1.745,685
1.747,666
1.747,638
1.747,607
1.747,579
1.747,554
1.747,537
1.75,533
1.75,543
1.75,563
1.75,579
1.75,590
1.75,606
1.753,621
1.753,629
1.753,639
1.753,648
1.753,656
1.753,658
1.754,651
1.755,634
1.755,614
1.755,598
1.755,578
1.756,557
1.756,534
1.757,520
1.757,513
1.757,502
1.758,485
1.758,473
1.758,477
1.758,502
1.76,536
1.76,572
1.76,604
1.761,617
1.761,616
1.761,615
1.763,607
1.763,590
1.763,568
1.763,542
1.763,518
1.763,504
1.765,500
1.765,495
1.765,491
1.766,493
1.766,518
1.766,553
1.766,575
1.768,594
1.768,614
1.768,628
1.768,637
1.769,644
1.769,644
1.771,635
1.771,622
1.771,607
1.771,590
1.771,573
1.771,554
1.771,534
1.774,522
1.774,526
1.774,540
1.774,560
1.774,575
1.774,583
1.777,590
1.777,595
1.777,596
1.777,596
1.777,603
1.778,613
1.78,620
1.78,617
1.78,612
1.78,614
1.78,622
1.78,628
1.78,629
1.782,626
1.782,623
1.782,620
1.782,618
1.782,609
1.782,598
1.785,585
1.785,566
1.785,541
1.785,517
1.785,492
1.785,465
1.785,438
1.788,410
1.788,387
1.788,377
1.788,383
1.788,399
1.788,418
1.791,438
1.791,452
1.791,453
1.791,444
1.791,434
1.791,431
1.793,436
1.793,446
1.793,462
1.793,477
1.794,495
1.794,529
1.794,579
1.796,631
1.796,672
1.796,709
1.796,740
1.796,761
1.796,771
1.799,771
1.799,761
1.799,745
1.799,724
1.799,711
1.799,711
1.8,710
1.801,699
1.801,681
1.802,666
1.802,669
1.802,675
1.802,669
1.804,649
1.804,630
1.804,618
1.804,610
1.804,609
1.805,615
1.806,619
1.807,613
1.807,605
1.807,603
1.807,607
1.807,610
1.807,610
1.809,610
1.809,617
1.809,627
1.81,629
1.81,624
1.81,613
1.812,602
1.812,594
1.812,593
1.812,590
1.812,586
1.812,584
1.812,586
1.815,593
1.815,595
1.815,598
1.815,606
1.815,617
1.815,621
1.817,616
1.817,604
1.817,587
1.817,564
1.817,543
1.818,525
1.821,509
1.821,489
1.821,467
1.821,447
1.821,432
1.821,427
1.821,444
1.823,474
1.823,493
1.823,504
1.823,512
1.823,525
1.823,541
1.826,556
1.826,560
1.826,550
1.826,535
1.826,523
1.826,517
1.826,511
1.828,507
1.828,508
1.828,513
1.829,518
1.829,524
1.829,531
1.831,543
1.831,565
1.831,580
1.831,580
1.831,576
1.831,580
1.834,590
1.834,602
1.834,611
1.834,618
1.834,618
1.834,610
1.834,599
1.837,599
1.837,608
1.837,614
1.837,611
1.837,602
1.837,597
1.84,598
1.84,613
1.84,636
1.84,655
1.84,661
1.84,657
1.84,651
1.842,644
1.842,635
1.842,626
1.842,620
1.842,626
1.842,634
1.845,638
1.845,634
1.845,625
1.845,623
1.845,623
1.845,608
1.847,583
1.847,560
1.847,542
1.848,519
1.848,493
1.848,470
1.848,451
1.85,438
1.85,432
1.85,428
1.85,420
1.85,409
1.85,395
1.853,373
1.853,351
1.853,345
1.853,353
1.853,384
1.853,436
1.854,500
1.856,560
1.856,597
1.856,616
1.856,630
1.856,636
1.856,632
1.859,634
1.859,634
1.859,633
1.859,643
1.859,664
1.859,682
1.861,691
1.861,701
1.862,719
1.862,740
1.862,756
1.862,767
1.862,770
1.863,769
1.864,765
1.864,759
1.864,750
1.864,742
1.864,730
1.866,714
1.866,695
1.867,679
1.867,663
1.867,645
1.867,626
1.867,610
1.869,602
1.869,599
1.869,599
1.869,603
1.869,610
1.87,615
1.872,613
1.872,605
1.872,592
1.872,577
1.872,569
1.872,567
1.874,571
1.874,577
1.875,589
1.875,605
1.875,623
1.875,640
1.875,650
1.878,645
1.878,635
1.878,632
1.878,635
1.878,640
1.878,643
1.88,642
1.88,639
1.88,637
1.881,634
1.881,627
1.881,624
1.881,622
1.883,618
1.883,616
1.883,623
1.883,635
1.883,645
1.883,648
1.886,648
1.886,648
1.886,647
1.886,644
1.886,642
1.886,641
1.889,639
1.889,634
1.889,622
1.889,606
1.889,594
1.889,589
1.889,588
1.891,591
1.891,593
1.891,592
1.891,585
1.891,572
1.891,559
1.893,551
1.893,549
1.894,547
1.894,540
1.894,533
1.894,529
1.894,530
1.897,525
1.897,515
1.897,502
1.897,499
1.897,524
1.897,557
1.9,581
1.9,597
1.9,612
1.9,625
1.9,638
1.9,653
1.902,673
1.902,692
1.902,707
1.902,717
1.902,717
1.902,705
1.902,686
1.905,674
1.905,677
1.905,691
1.905,697
1.905,698
1.905,692
1.908,684
1.908,678
1.908,678
1.908,678
1.908,676
1.908,673
1.908,676
1.91,679
1.91,672
1.91,661
1.911,651
1.911,639
1.911,620
1.913,595
1.913,577
1.913,569
1.913,571
1.913,585
1.913,606
1.916,622
1.916,632
1.916,636
1.916,628
1.916,611
1.916,591
1.916,571
1.918,548
1.918,522
1.918,495
1.918,482
1.918,484
1.918,495
1.921,511
1.921,533
1.921,552
1.921,572
1.921,591
1.921,604
1.921,618
1.924,636
1.924,648
1.924,653
1.924,652
1.924,652
1.924,650
1.927,641
1.927,625
1.927,610
1.927,596
1.927,582
1.927,568
1.929,557
1.929,546
1.929,538
1.929,539
1.929,542
1.929,542
1.93,538
1.932,531
1.932,521
1.932,509
1.932,486
1.932,459
1.932,449
1.935,465
1.935,495
1.935,531
1.935,574
1.935,624
1.935,678
1.936,727
1.938,767
1.938,793
1.938,810
1.938,821
1.938,816
1.938,800
1.94,780
1.94,756
1.94,726
1.94,694
1.94,668
1.94,644
1.943,625
1.943,617
1.943,620
1.943,625
1.943,625
1.943,621
1.944,614
1.946,614
1.946,620
1.946,626
1.946,629
1.946,632
1.946,635
1.948,630
1.948,616
1.949,596
1.949,578
1.949,566
1.949,556
1.949,551
1.951,553
1.951,558
1.951,555
1.951,547
1.951,538
1.952,527
1.954,518
1.954,514
1.954,520
1.954,533
1.954,545
1.955,555
1.956,560
1.957,560
1.957,568
1.957,582
1.957,591
1.958,592
1.958,595
1.959,611
1.959,633
1.959,653
1.96,664
1.96,662
1.96,642
1.962,607
1.962,567
1.962,522
1.962,478
1.962,445
1.962,428
1.962,423
1.965,424
1.965,441
1.965,465
1.965,495
1.965,528
1.965,553
1.967,570
1.967,581
1.967,595
1.967,616
1.967,636
1.967,650
1.97,660
1.97,663
1.97,663
1.97,663
1.97,660
1.97,656
1.97,652
1.973,649
1.973,652
1.973,658
1.973,665
1.973,673
1.973,678
1.976,681
1.976,689
1.976,699
1.976,709
1.976,719
1.976,726
1.977,726
1.979,721
1.979,706
1.979,685
1.979,664
1.979,645
1.979,624
1.981,601
1.981,574
1.981,544
1.981,518
1.981,498
1.981,475
1.983,450
1.983,431
1.983,421
1.983,417
1.983,411
1.983,391
1.983,368
1.987,359
1.987,374
1.987,412
1.987,465
1.987,515
1.987,554
1.989,587
1.989,614
1.989,639
1.989,657
1.99,670
1.99,679
1.99,687
1.992,694
1.992,695
1.992,692
1.993,685
1.993,671
1.993,653
1.995,639
1.995,629
1.995,624
1.996,616
1.996,602
1.996,588
1.997,580
1.997,575
1.997,579
1.997,591
1.997,599
1.997,593
1.997,578
2.0,563
2.0,549
2.0,536
2.0,526
2.0,527
2.0,534
2.003,539
2.003,538
2.003,533
2.003,526
2.003,521
2.003,527
2.003,536
2.006,540
2.006,543
2.006,544
2.006,541
2.006,538
2.007,540
2.008,543
2.008,545
2.008,541
2.008,533
2.009,531
2.009,536
2.011,542
2.011,542
2.011,547
2.011,566
2.012,590
2.012,604
2.012,612
2.014,616
2.014,620
2.014,620
2.014,617
2.014,612
2.014,609
2.016,605
2.016,600
2.016,594
2.016,585
2.016,575
2.016,566
2.017,557
2.019,547
2.019,540
2.019,541
2.019,551
2.019,572
2.02,591
2.022,601
2.022,596
2.022,569
2.022,531
2.022,494
2.022,464
2.025,435
2.025,408
2.025,392
2.025,383
2.025,373
2.025,366
2.025,370
2.027,387
2.027,409
2.028,438
2.028,475
2.028,505
2.028,518
2.03,521
2.03,518
2.03,517
2.03,513
2.03,509
2.03,511
2.031,525
2.033,541
2.033,561
2.033,592
2.033,627
2.034,655
2.034,680
2.035,701
2.035,713
2.035,718
2.035,721
2.035,722
2.035,727
2.038,730
2.038,729
2.038,728
2.038,723
2.038,716
2.038,704
2.039,691
2.041,676
2.041,662
2.041,647
2.041,634
2.041,621
2.041,605
2.044,593
2.044,587
2.044,586
2.044,591
2.044,595
2.045,595
2.045,594
2.046,591
2.046,586
2.046,586
2.046,589
2.046,589
2.046,590
2.049,592
2.049,589
2.049,583
2.049,573
2.049,556
2.049,533
2.052,503
2.052,469
2.052,439
2.052,413
2.052,394
2.052,379
2.052,362
2.054,353
2.054,364
2.054,397
2.054,439
2.054,485
2.055,540
2.057,599
2.057,654
2.057,690
2.057,709
2.057,716
2.057,716
2.057,712
2.059,706
2.059,700
2.059,692
2.06,683
2.06,672
2.06,661
2.062,648
2.062,635
2.062,623
2.062,612
2.062,599
2.062,582
2.065,559
2.065,535
2.065,518
2.065,513
2.065,518
2.065,528
2.065,538
2.068,543
2.068,538
2.068,530
2.068,521
2.068,511
2.068,501
2.071,498
2.071,499
2.071,499
2.071,495
2.071,495
2.071,507
2.071,528
2.074,543
2.074,550
2.074,551
2.074,555
2.074,571
2.074,598
2.076,629
2.076,653
2.076,672
2.076,691
2.076,705
2.076,707
2.079,703
2.079,696
2.079,692
2.079,685
2.079,673
2.079,656
2.079,634
2.082,611
2.082,593
2.082,579
2.082,565
2.082,552
2.082,543
2.084,532
2.084,515
2.084,492
2.084,461
2.084,422
2.084,384
2.084,354
2.087,328
2.087,300
2.087,270
2.087,242
2.087,220
2.087,210
2.09,218
2.09,233
2.09,255
2.09,307
2.09,385
2.09,462
2.093,528
2.093,580
2.093,615
2.093,643
2.094,662
2.094,674
2.094,686
2.095,698
2.095,708
2.095,713
2.095,711
2.095,705
2.095,697
2.098,686
2.098,676
2.098,665
2.098,650
2.098,642
2.098,642
2.098,645
2.101,652
2.101,660
2.101,666
2.101,672
2.101,680
2.101,687
2.103,686
2.103,678
2.103,667
2.103,656
2.103,645
2.103,634
2.106,624
2.106,612
2.106,605
2.106,601
2.106,596
2.106,586
2.106,578
2.109,577
2.109,577
2.109,576
2.109,570
2.109,567
2.109,571
2.111,580
2.111,591
2.111,604
2.111,620
2.111,633
2.111,640
2.112,641
2.114,637
2.114,623
2.114,605
2.114,588
2.114,580
2.115,575
2.117,565
2.117,554
2.117,540
2.117,527
2.117,531
2.117,558
2.12,591
2.12,613
2.12,628
2.12,637
2.12,639
2.12,630
2.12,616
2.123,607
2.123,604
2.123,613
2.123,624
2.123,629
2.123,628
2.125,625
2.125,621
2.125,616
2.125,612
2.125,607
2.125,600
2.125,587
2.128,570
2.128,557
2.128,550
2.128,546
2.128,542
2.128,535
2.131,528
2.131,530
2.131,542
2.131,561
2.131,578
2.132,586
2.133,590
2.133,592
2.133,596
2.133,607
2.133,623
2.133,635
2.133,639
2.136,641
2.136,641
2.136,643
2.136,649
2.136,659
2.137,670
2.139,680
2.139,679
2.139,664
2.139,641
2.139,613
2.139,580
2.14,544
2.142,509
2.142,474
2.142,435
2.142,406
2.142,393
2.142,390
2.144,395
2.144,408
2.145,434
2.145,467
2.145,504
2.145,543
2.147,579
2.147,610
2.147,630
2.147,637
2.147,636
2.147,629
2.148,622
2.149,617
2.149,617
2.149,621
2.149,624
2.149,623
2.149,624
2.153,629
2.153,639
2.153,649
2.153,656
2.153,660
2.153,662
2.153,656
2.155,640
2.155,622
2.155,610
2.155,597
2.155,579
2.155,561
2.158,548
2.158,541
2.158,543
2.158,551
2.158,562
2.158,571
2.161,576
2.161,571
2.161,555
2.161,536
2.161,519
2.161,505
2.161,495
2.163,489
2.163,493
2.163,508
2.163,535
2.163,561
2.163,583
2.166,600
2.166,611
2.166,622
2.166,631
2.166,641
2.166,648
2.166,652
2.169,652
2.169,643
2.169,627
2.169,611
2.169,600
2.169,597
2.172,602
2.172,609
2.172,613
2.172,614
2.172,613
2.172,609
2.174,605
2.174,605
2.174,609
2.175,614
2.175,618
2.175,624
2.175,636
2.177,654
2.177,676
2.177,696
2.177,710
2.179,723
2.179,735
2.18,736
2.18,723
2.18,699
2.18,671
2.18,644
2.18,620
2.181,597
2.182,571
2.182,549
2.182,528
2.182,508
2.182,488
2.182,468
2.185,468
2.185,487
2.185,511
2.185,536
2.185,559
2.185,572
2.188,577
2.188,581
2.188,582
2.188,577
2.188,569
2.188,558
2.188,550
2.191,546
2.191,550
2.191,558
2.191,561
2.192,563
2.192,568
2.193,576
2.193,590
2.193,606
2.193,611
2.193,609
2.193,607
2.193,606
2.196,605
2.196,603
2.196,598
2.196,590
2.196,584
2.196,581
2.199,582
2.199,591
2.199,604
2.199,616
2.199,621
2.199,615
2.201,603
2.201,591
2.201,581
2.201,569
2.201,554
2.201,536
2.201,525
2.204,523
2.204,515
2.204,486
2.204,440
2.204,384
2.204,324
2.207,276
2.207,238
2.207,203
2.207,189
2.207,199
2.207,221
2.207,243
2.21,269
2.21,322
2.21,407
2.21,497
2.21,575
2.211,635
2.212,680
2.212,715
2.212,739
2.212,753
2.212,761
2.212,765
2.214,767
2.215,768
2.215,766
2.215,765
2.215,761
2.215,756
2.215,751
2.217,746
2.217,740
2.218,735
2.218,731
2.218,725
2.218,714
2.22,699
2.22,682
2.22,666
2.22,649
2.22,633
2.22,616
2.221,597
2.223,577
2.223,554
2.223,528
2.223,501
2.223,479
2.223,456
2.225,429
2.225,403
2.226,385
2.226,383
2.226,389
2.226,398
2.228,413
2.228,443
2.228,481
2.228,512
2.228,530
2.229,542
2.229,555
2.231,577
2.231,598
2.231,608
2.231,608
2.231,601
2.231,595
2.234,594
2.234,599
2.234,606
2.234,615
2.234,624
2.235,634
2.235,643
2.237,650
2.237,655
2.237,660
2.237,662
2.237,662
2.237,657
2.24,652
2.24,652
2.24,658
2.24,665
2.24,665
2.24,659
2.242,649
2.242,640
2.242,634
2.242,625
2.242,614
2.242,604
2.242,599
2.245,594
2.245,591
2.245,587
2.245,580
2.245,570
2.246,561
2.248,557
2.248,555
2.248,551
2.248,544
2.248,539
2.248,538
2.249,540
2.25,544
2.25,544
2.25,549
2.25,565
2.25,579
2.25,587
2.253,588
2.253,588
2.253,588
2.253,594
2.253,601
2.253,603
2.256,601
2.256,599
2.256,596
2.256,593
2.256,588
2.256,586
2.256,584
2.259,583
2.259,586
2.259,587
2.259,582
2.259,571
2.259,555
2.262,538
2.262,526
2.262,519
2.262,517
2.262,522
2.262,524
2.263,522
2.264,518
2.264,512
2.264,506
2.264,507
2.264,511
2.264,510
2.267,503
2.267,497
2.267,498
2.267,504
2.267,510
2.267,514
2.269,511
2.269,504
2.269,496
2.27,491
2.27,492
2.27,493
2.27,492
2.272,488
2.272,485
2.272,484
2.272,480
2.272,481
2.272,491
2.275,503
2.275,521
2.275,537
2.275,542
2.275,538
2.275,531
2.275,523
2.278,516
2.278,520
2.278,534
2.278,542
2.279,548
2.279,570
2.28,604
2.28,637
2.28,659
2.28,673
2.28,674
2.281,663
2.283,640
2.283,607
2.283,569
2.283,531
2.283,487
2.283,435
2.283,376
2.285,323
2.285,288
2.285,273
2.286,271
2.286,278
2.286,287
2.288,305
2.288,338
2.288,392
2.288,455
2.288,515
2.288,563
2.288,590
2.291,602
2.291,604
2.291,592
2.291,574
2.291,553
2.291,531
2.294,507
2.294,480
2.294,460
2.294,453
2.295,457
2.295,484
2.297,535
2.297,591
2.297,642
2.297,694
2.297,744
2.297,786
2.297,811
2.299,827
2.299,833
2.299,830
2.299,816
2.299,797
2.3,773
2.302,747
2.302,724
2.302,704
2.302,689
2.302,673
2.302,655
2.303,637
2.305,625
2.305,620
2.305,619
2.305,618
2.305,615
2.305,612
2.308,609
2.308,594
2.308,567
2.308,532
2.308,495
2.308,458
2.31,430
2.31,413
2.31,407
2.31,404
2.31,405
2.31,417
2.31,432
2.313,445
2.313,462
2.313,487
2.313,521
2.313,555
2.314,582
2.316,599
2.316,611
2.316,616
2.316,619
2.316,620
2.316,623
2.317,624
2.318,625
2.318,625
2.318,624
2.318,622
2.318,631
2.319,643
2.321,646
2.322,641
2.322,627
2.322,613
2.322,602
2.322,594
2.324,585
2.324,578
2.324,575
2.324,572
2.324,565
2.324,560
2.324,558
2.326,557
2.326,557
2.326,555
2.326,553
2.326,552
2.326,554
2.328,558
2.329,561
2.329,554
2.329,539
2.329,521
2.329,510
2.329,504
2.331,504
2.331,511
2.331,522
2.332,534
2.332,548
2.332,567
2.334,574
2.334,558
2.335,528
2.335,490
2.335,458
2.335,449
2.337,457
2.337,466
2.337,480
2.337,499
2.337,525
2.337,561
2.337,608
2.34,657
2.34,688
2.34,698
2.34,691
2.34,674
2.34,649
2.343,623
2.343,599
2.343,583
2.343,574
2.343,564
2.343,543
2.343,512
2.345,487
2.345,475
2.345,470
2.345,467
2.345,460
2.345,460
2.348,467
2.348,466
2.348,457
2.348,449
2.348,451
2.348,458
2.351,469
2.351,486
2.351,506
2.351,524
2.351,536
2.351,547
2.351,557
2.354,567
2.354,575
2.354,580
2.354,579
2.354,573
2.354,571
2.357,576
2.357,586
2.357,597
2.357,609
2.357,613
2.357,609
2.357,608
2.359,612
2.359,609
2.359,604
2.359,599
2.359,595
2.359,594
2.362,598
2.362,598
2.362,594
2.362,596
2.362,608
2.362,623
2.365,633
2.365,632
2.365,627
2.365,620
2.365,610
2.365,600
2.366,591
2.367,582
2.367,572
2.367,562
2.367,557
2.367,558
2.368,558
2.37,555
2.37,542
2.37,519
2.37,496
2.37,479
2.37,473
2.371,472
2.373,473
2.373,478
2.373,489
2.373,504
2.373,523
2.374,542
2.376,555
2.376,573
2.376,596
2.376,609
2.376,613
2.376,608
2.378,598
2.379,594
2.379,597
2.379,601
2.379,602
2.379,603
2.379,607
2.381,606
2.381,602
2.381,599
2.381,598
2.381,594
2.381,587
2.384,578
2.384,567
2.384,556
2.384,543
2.384,533
2.384,523
2.384,508
2.387,482
2.387,451
2.387,423
2.387,399
2.387,381
2.387,368
2.389,359
2.389,354
2.389,357
2.389,366
2.389,377
2.389,384
2.392,387
2.392,388
2.392,386
2.392,381
2.392,385
2.392,397
2.392,418
2.395,454
2.395,502
2.395,554
2.395,597
2.395,635
2.396,663
2.397,681
2.397,689
2.397,690
2.397,692
2.397,698
2.397,708
2.398,717
2.4,719
2.4,716
2.4,708
2.4,700
2.4,689
2.4,675
2.403,659
2.403,642
2.403,626
2.403,614
2.403,606
2.403,602
2.405,600
2.405,594
2.405,590
2.406,589
2.406,586
2.406,578
2.406,569
2.408,557
2.408,546
2.408,538
2.408,533
2.408,529
2.409,524
2.411,520
2.411,516
2.412,515
2.412,517
2.412,516
2.412,511
2.412,507
2.414,503
2.414,507
2.414,525
2.414,550
2.414,569
2.414,579
2.416,580
2.416,578
2.416,580
2.416,593
2.416,613
2.416,629
2.419,640
2.419,646
2.419,647
2.419,644
2.419,637
2.419,625
2.42,614
2.422,607
2.422,602
2.422,598
2.422,591
2.423,577
2.423,558
2.424,533
2.424,503
2.425,466
2.425,427
2.425,394
2.425,366
2.425,342
2.427,318
2.427,296
2.427,297
2.427,324
2.427,357
2.427,390
2.43,431
2.43,481
2.43,524
2.43,555
2.43,571
2.43,572
2.433,567
2.433,560
2.433,555
2.433,550
2.433,549
2.433,555
2.433,564
2.435,577
2.435,595
2.435,616
2.435,635
2.435,652
2.435,666
2.438,673
2.438,678
2.438,686
2.438,692
2.438,698
2.438,720
2.438,750
2.441,772
2.441,780
2.441,774
2.441,759
2.441,740
2.441,717
2.444,693
2.444,670
2.444,646
2.444,627
2.444,619
2.444,616
2.446,610
2.446,592
2.446,574
2.446,564
2.446,556
2.446,547
2.446,538
2.449,535
2.449,539
2.449,537
2.449,528
2.449,514
2.449,505
2.452,505
2.452,509
2.452,513
2.452,514
2.452,513
2.452,516
2.452,520
2.455,521
2.455,522
2.455,527
2.455,531
2.455,533
2.455,541
2.457,551
2.457,560
2.457,567
2.457,568
2.457,569
2.457,571
2.46,579
2.46,586
2.46,592
2.46,600
2.46,614
2.46,630
2.461,639
2.462,643
2.462,645
2.462,641
2.463,635
2.463,627
2.463,618
2.465,615
2.465,613
2.465,611
2.465,606
2.465,602
2.465,607
2.465,616
2.468,627
2.468,633
2.468,635
2.468,639
2.468,640
2.468,635
2.47,624
2.47,606
2.471,586
2.471,572
2.471,559
2.471,550
2.473,548
2.473,548
2.473,551
2.473,553
2.473,557
2.473,563
2.474,572
2.476,585
2.476,597
2.476,602
2.476,603
2.476,603
2.476,608
2.478,617
2.478,629
2.478,641
2.478,656
2.48,672
2.48,684
2.48,687
2.482,683
2.482,669
2.482,650
2.482,630
2.483,608
2.483,587
2.485,566
2.485,549
2.485,534
2.485,518
2.485,506
2.486,493
2.486,480
2.487,472
2.487,477
2.487,488
2.487,499
2.487,504
2.487,505
2.49,501
2.49,492
2.49,480
2.49,470
2.49,459
2.49,448
2.493,436
2.493,425
2.493,411
2.493,397
2.493,385
2.493,381
2.493,380
2.495,378
2.495,377
2.495,376
2.496,376
2.496,378
2.496,381
2.498,390
2.498,406
2.498,427
2.498,442
2.498,450
2.498,452
2.501,450
2.501,456
2.501,467
2.501,472
2.501,470
2.501,465
2.501,462
2.504,468
2.504,474
2.504,472
2.504,465
2.504,453
2.504,439
2.506,422
2.506,404
2.506,387
2.506,369
2.506,354
2.506,346
2.507,354
2.509,372
2.509,393
2.509,418
2.509,440
2.509,455
2.509,459
2.512,456
2.512,449
2.513,440
2.513,432
2.513,429
2.513,430
2.514,430
2.514,433
2.514,442
2.514,454
2.515,468
2.515,481
2.515,490
2.517,495
2.517,497
2.517,499
2.517,504
2.517,509
2.517,515
2.52,516
2.52,516
2.52,521
2.52,528
2.52,530
2.521,529
2.521,525
2.523,516
2.523,499
2.523,475
2.523,448
2.523,420
2.524,401
2.525,388
2.525,375
2.525,364
2.525,356
2.525,344
2.526,331
2.528,322
2.528,318
2.528,312
2.528,309
2.528,314
2.528,324
2.529,340
2.531,361
2.531,381
2.531,399
2.531,416
2.531,433
2.531,451
2.533,471
2.533,488
2.533,500
2.533,508
2.533,521
2.533,537
2.534,551
2.536,560
2.536,562
2.536,563
2.536,566
2.536,570
2.536,583
2.539,599
2.539,614
2.539,626
2.539,627
2.539,617
2.539,602
2.542,587
2.542,573
2.542,564
2.542,553
2.542,533
2.542,510
2.543,493
2.544,484
2.544,479
2.544,471
2.545,462
2.545,453
2.545,441
2.547,430
2.547,423
2.547,421
2.547,422
2.547,429
2.547,444
2.548,455
2.55,461
2.55,467
2.55,474
2.55,486
2.55,499
2.55,509
2.553,515
2.553,518
2.553,517
2.553,512
2.553,510
2.554,516
2.555,532
2.555,549
2.555,561
2.555,568
2.556,570
2.556,569
2.556,568
2.558,575
2.558,591
2.558,615
2.558,636
2.558,646
2.558,645
2.561,639
2.561,630
2.561,618
2.561,609
2.561,603
2.561,597
2.561,590
2.563,582
2.563,571
2.563,559
2.563,549
2.564,541
2.564,529
2.566,517
2.566,508
2.566,498
2.566,487
2.566,480
2.566,475
2.569,474
2.569,476
2.569,478
2.569,481
2.569,484
2.569,487
2.569,492
2.572,498
2.572,502
2.572,505
2.572,507
2.572,505
2.572,494
2.574,474
2.574,444
2.574,412
2.574,377
2.574,338
2.574,310
2.574,301
2.577,303
2.577,315
2.577,338
2.577,373
2.577,410
2.577,444
2.58,474
2.58,505
2.58,529
2.58,553
2.581,576
2.581,591
2.582,597
2.582,601
2.582,606
2.582,609
2.582,612
2.582,620
2.583,623
2.585,616
2.585,601
2.585,581
2.585,558
2.585,535
2.585,512
2.588,496
2.588,489
2.588,494
2.588,505
2.588,516
2.588,524
2.588,528
2.591,529
2.591,533
2.591,544
2.591,555
2.591,559
2.591,558
2.593,551
2.593,541
2.593,537
2.593,542
2.593,549
2.593,555
2.596,556
2.596,554
2.596,555
2.596,557
2.596,556
2.596,554
2.596,552
2.599,543
2.599,526
2.599,512
2.599,506
2.599,512
2.599,522
2.602,525
2.602,514
2.602,504
2.602,503
2.602,510
2.602,516
2.602,519
2.604,522
2.604,527
2.604,532
2.604,542
2.604,551
2.604,548
2.607,536
2.607,519
2.607,499
2.607,475
2.607,448
2.607,426
2.609,416
2.609,418
2.609,427
2.61,436
2.61,447
2.61,459
2.61,471
2.611,481
2.612,488
2.612,497
2.612,508
2.612,522
2.612,534
2.615,542
2.615,546
2.616,549
2.616,555
2.616,569
2.616,584
2.616,589
2.618,584
2.618,574
2.618,563
2.618,555
2.618,544
2.618,535
2.62,532
2.62,535
2.62,531
2.62,514
2.62,499
2.62,493
2.623,494
2.623,489
2.623,484
2.623,473
2.623,454
2.623,439
2.623,426
2.625,416
2.625,416
2.626,424
2.626,431
2.626,438
2.626,449
2.628,461
2.628,471
2.628,477
2.628,482
2.629,485
2.629,491
2.629,497
2.631,504
2.631,510
2.631,516
2.631,521
2.631,523
2.631,524
2.634,525
2.634,530
2.634,538
2.634,543
2.634,546
2.634,549
2.637,556
2.637,564
2.637,571
2.637,574
2.637,573
2.637,576
2.637,587
2.64,600
2.64,611
2.64,618
2.64,624
2.64,627
2.64,630
2.642,636
2.642,635
2.642,625
2.642,608
2.643,590
2.643,572
2.643,551
2.645,530
2.645,510
2.645,491
2.646,471
2.646,450
2.646,427
2.648,411
2.648,401
2.648,390
2.648,377
2.648,372
2.649,371
2.65,368
2.65,363
2.65,353
2.65,335
2.65,316
2.651,301
2.651,293
2.653,283
2.653,278
2.653,285
2.653,299
2.653,326
2.653,375
2.656,439
2.656,507
2.656,569
2.656,622
2.656,659
2.656,683
2.656,699
2.659,712
2.659,724
2.659,734
2.659,735
2.659,726
2.659,716
2.661,707
2.661,696
2.662,679
2.662,660
2.662,641
2.662,623
2.664,609
2.664,597
2.664,588
2.664,584
2.664,586
2.664,586
2.664,588
2.667,589
2.667,585
2.667,575
2.667,559
2.667,541
2.667,522
2.669,501
2.669,477
2.67,453
2.67,432
2.67,407
2.67,383
2.67,380
2.672,397
2.672,419
2.672,438
2.672,459
2.672,480
2.673,499
2.675,510
2.675,513
2.675,507
2.675,501
2.675,498
2.675,509
2.678,529
2.678,549
2.679,573
2.679,600
2.679,622
2.679,647
2.679,672
2.68,686
2.68,683
2.68,668
2.68,647
2.68,627
2.68,609
2.683,597
2.683,589
2.683,581
2.683,569
2.683,554
2.683,537
2.683,520
2.686,509
2.686,510
2.686,516
2.686,525
2.686,534
2.686,539
2.688,538
2.689,534
2.689,526
2.689,519
2.689,516
2.689,514
2.691,511
2.691,509
2.691,508
2.691,511
2.691,516
2.691,518
2.691,518
2.694,515
2.694,511
2.694,509
2.694,509
2.695,513
2.695,524
2.697,541
2.697,561
2.697,582
2.697,598
2.697,610
2.697,617
2.697,616
2.699,614
2.699,610
2.699,602
2.699,591
2.699,579
2.699,566
2.702,554
2.702,541
2.702,522
2.702,500
2.702,483
2.702,474
2.705,470
2.705,469
2.705,468
2.705,459
2.705,443
2.705,424
2.705,400
2.707,379
2.708,372
2.708,377
2.708,384
2.708,393
2.708,411
2.71,438
2.71,465
2.71,487
2.71,504
2.711,511
2.711,510
2.711,501
2.713,491
2.713,491
2.713,502
2.713,517
2.713,529
2.713,539
2.716,547
2.716,557
2.716,563
2.716,565
2.716,566
2.716,568
2.718,569
2.718,568
2.719,564
2.719,556
2.719,545
2.719,532
2.719,513
2.721,493
2.721,488
2.721,493
2.722,497
2.722,500
2.722,508
2.724,523
2.724,536
2.724,538
2.724,531
2.724,521
2.724,515
2.725,514
2.726,518
2.726,523
2.726,528
2.726,531
2.726,534
2.726,536
2.729,536
2.729,536
2.729,534
2.729,529
2.729,517
2.729,499
2.732,480
2.732,460
2.732,445
2.732,428
2.732,408
2.732,384
2.732,358
2.735,328
2.735,298
2.735,272
2.735,254
2.735,254
2.735,273
2.738,311
2.738,373
2.738,452
2.738,519
2.738,561
2.738,588
2.738,601
2.74,606
2.74,616
2.74,629
2.74,639
2.74,647
2.74,648
2.743,643
2.743,631
2.743,617
2.743,602
2.743,590
2.743,579
2.745,572
2.745,565
2.745,558
2.745,547
2.745,535
2.746,526
2.746,515
2.748,502
2.748,495
2.748,493
2.748,493
2.748,490
2.748,483
2.751,482
2.751,485
2.751,490
2.751,491
2.751,495
2.751,502
2.751,507
2.754,516
2.754,529
2.754,544
2.754,561
2.754,575
2.754,586
2.757,591
2.757,590
2.757,587
2.757,582
2.757,575
2.757,575
2.759,590
2.759,610
2.759,622
2.759,624
2.759,619
2.759,609
2.759,593
2.762,578
2.762,562
2.762,550
2.762,545
2.762,540
2.762,529
2.764,513
2.764,500
2.764,494
2.764,489
2.764,478
2.764,465
2.765,454
2.767,440
2.767,423
2.767,408
2.767,396
2.767,390
2.767,385
2.769,378
2.769,376
2.77,382
2.77,390
2.77,401
2.77,416
2.772,431
2.772,445
2.772,464
2.772,487
2.772,511
2.773,526
2.773,527
2.775,518
2.775,507
2.775,501
2.775,502
2.775,512
2.776,530
2.778,561
2.778,598
2.778,631
2.778,659
2.778,679
2.779,690
2.779,699
2.781,707
2.781,707
2.781,698
2.781,682
2.781,665
2.781,650
2.784,635
2.784,618
2.784,601
2.784,584
2.784,570
2.784,557
2.787,544
2.787,531
2.787,517
2.787,503
2.787,491
2.787,481
2.787,472
2.789,466
2.789,463
2.789,458
2.789,451
2.789,443
2.789,443
2.792,446
2.792,447
2.792,444
2.792,442
2.792,441
2.792,442
2.793,445
2.794,452
2.794,456
2.796,456
2.796,461
2.796,470
2.796,476
2.797,477
2.798,474
2.798,467
2.798,462
2.798,459
2.798,456
2.8,453
2.8,448
2.8,444
2.8,442
2.8,440
2.8,441
2.8,453
2.803,477
2.803,505
2.803,527
2.803,543
2.803,551
2.803,551
2.806,550
2.806,551
2.806,553
2.806,552
2.806,548
2.806,541
2.806,536
2.808,532
2.808,529
2.808,525
2.808,518
2.808,510
2.808,501
2.811,492
2.811,484
2.811,477
2.811,468
2.812,461
2.812,455
2.813,445
2.814,436
2.814,438
2.814,454
2.814,472
2.814,481
2.814,485
2.816,487
2.816,484
2.816,477
2.816,469
2.817,461
2.817,451
2.819,441
2.819,440
2.819,447
2.819,459
2.819,471
2.819,487
2.819,503
2.821,515
2.822,518
2.822,510
2.822,497
2.822,481
2.822,462
2.824,447
2.824,443
2.824,451
2.824,467
2.824,470
2.825,456
2.827,439
2.827,420
2.827,398
2.827,373
2.827,344
2.827,322
2.828,319
2.83,333
2.83,348
2.83,363
2.83,380
2.83,395
2.83,406
2.832,414
2.832,424
2.832,439
2.833,451
2.833,455
2.833,460
2.833,478
2.835,504
2.835,532
2.835,566
2.835,598
2.835,623
2.835,636
2.838,641
2.838,643
2.838,637
2.838,618
2.838,600
2.838,598
2.841,605
2.841,605
2.841,594
2.841,571
2.841,551
2.841,540
2.841,535
2.843,530
2.843,522
2.843,510
2.843,495
2.843,478
2.843,456
2.846,429
2.846,398
2.846,369
2.846,349
2.846,340
2.846,336
2.846,338
2.849,348
2.849,362
2.849,383
2.849,414
2.849,452
2.849,490
2.852,522
2.852,543
2.852,558
2.852,570
2.852,583
2.852,592
2.855,598
2.855,601
2.855,606
2.855,613
2.855,623
2.855,638
2.855,651
2.857,654
2.857,660
2.857,663
2.857,654
2.857,632
2.857,601
2.859,560
2.859,519
2.861,496
2.861,494
2.861,506
2.861,520
2.861,535
2.862,550
2.862,562
2.862,568
2.862,576
2.862,594
2.863,610
2.866,619
2.866,622
2.866,621
2.866,615
2.866,605
2.866,588
2.868,565
2.868,548
2.868,537
2.868,526
2.868,511
2.868,496
2.868,484
2.871,469
2.871,451
2.871,437
2.871,431
2.871,430
2.871,435
2.874,444
2.874,457
2.874,479
2.874,506
2.874,527
2.874,544
2.874,558
2.876,570
2.876,581
2.876,590
2.876,597
2.876,603
2.876,608
2.879,607
2.879,601
2.879,592
2.879,581
2.879,568
2.879,548
2.882,522
2.882,497
2.882,474
2.882,449
2.882,420
2.882,389
2.882,356
2.884,321
2.884,300
2.884,310
2.885,339
2.885,371
2.885,396
2.887,412
2.887,426
2.887,449
2.887,474
2.887,501
2.887,527
2.887,547
2.89,556
2.89,561
2.89,560
2.89,551
2.89,536
2.89,518
2.893,498
2.893,481
2.893,471
2.893,466
2.893,468
2.893,477
2.895,487
2.895,498
2.895,514
2.895,536
2.896,561
2.896,583
2.896,600
2.898,612
2.898,619
2.898,621
2.898,620
2.898,619
2.898,616
2.901,611
2.901,606
2.901,600
2.901,593
2.901,584
2.901,576
2.901,568
2.903,562
2.903,557
2.903,551
2.903,544
2.903,537
2.903,527
2.906,518
2.906,510
2.907,504
2.907,498
2.907,499
2.907,505
2.909,514
2.909,525
2.909,535
2.909,544
2.909,553
2.909,565
2.909,569
2.912,564
2.912,555
2.912,548
2.912,542
2.912,530
2.912,515
2.914,502
2.914,491
2.914,480
2.914,469
2.914,461
2.914,455
2.914,449
2.917,443
2.917,434
2.917,423
2.917,413
2.917,410
2.917,417
2.92,427
2.92,440
2.92,460
2.92,483
2.92,506
2.92,525
2.922,543
2.922,556
2.922,559
2.922,556
2.922,553
2.922,554
2.922,551
2.925,540
2.925,531
2.925,528
2.925,521
2.925,508
2.925,491
2.928,471
2.928,454
2.928,445
2.928,444
2.928,442
2.928,434
2.928,421
2.931,402
2.931,374
2.931,344
2.931,326
2.931,328
2.931,338
2.933,363
2.933,403
2.933,446
2.933,486
2.933,519
2.933,550
2.935,577
2.935,599
2.935,611
2.936,616
2.936,614
2.936,607
2.936,599
2.939,587
2.939,575
2.939,561
2.939,550
2.939,541
2.939,536
2.942,534
2.942,540
2.942,559
2.942,583
2.942,598
2.942,601
2.942,596
2.944,588
2.944,576
2.944,559
2.944,541
2.944,527
2.945,517
2.947,507
2.947,493
2.947,478
2.947,473
2.947,475
2.947,481
2.95,485
2.95,484
2.95,478
2.95,471
2.95,470
2.95,474
2.95,483
2.952,495
2.953,505
2.953,505
2.953,501
2.953,500
2.953,499
2.955,495
2.955,489
2.955,486
2.955,487
2.955,489
2.955,492
2.955,498
2.958,504
2.958,508
2.958,511
2.958,520
2.958,535
2.958,559
2.961,586
2.961,606
2.961,613
2.961,612
2.962,607
2.962,599
2.963,591
2.963,583
2.963,576
2.963,568
2.963,556
2.963,547
2.963,543
2.966,543
2.966,544
2.966,541
2.966,537
2.966,535
2.966,535
2.968,535
2.968,533
2.969,530
2.969,526
2.969,519
2.969,513
2.969,511
2.972,508
2.972,505
2.972,502
2.972,496
2.972,488
2.972,480
2.974,477
2.974,483
2.974,495
2.974,511
2.974,528
2.974,547
2.977,563
2.977,578
2.977,596
2.977,612
2.977,626
2.977,636
2.977,645
2.979,651
2.979,652
2.979,648
2.979,640
2.979,624
2.979,600
2.982,574
2.982,549
2.982,520
2.983,489
2.983,454
2.983,418
2.983,385
2.985,367
2.985,372
2.985,390
2.985,403
2.985,405
2.985,399
2.988,390
2.988,379
2.988,370
2.988,378
2.988,390
2.988,403
2.99,418
2.99,434
2.99,445
2.99,448
2.99,448
2.99,452
2.99,464
2.993,485
2.993,506
2.993,526
2.993,546
2.993,565
2.993,582
2.996,589
2.996,587
2.996,585
2.996,581
2.996,573
2.996,565
2.996,558
2.999,548
2.999,535
2.999,528
2.999,529
2.999,536
2.999,545
