Timestamp,Sensor Data
0.0,590
0.0,586
0.0,582
0.001,576
0.001,570
0.001,562
0.003,553
0.004,544
0.004,535
0.004,525
0.004,515
0.005,505
0.006,495
0.006,486
0.006,477
0.006,469
0.007,462
0.007,454
0.007,447
0.009,441
0.009,435
0.009,429
0.009,424
0.01,419
0.01,414
0.011,410
0.011,406
0.011,403
0.012,400
0.012,398
0.012,396
0.012,395
0.014,394
0.014,394
0.014,394
0.014,395
0.015,395
0.015,398
0.017,402
0.017,406
0.017,411
0.017,417
0.018,424
0.018,433
0.02,444
0.02,457
0.02,471
0.021,486
0.021,501
0.021,516
0.021,530
0.022,544
0.022,556
0.022,567
0.022,575
0.023,582
0.023,587
0.024,589
0.024,589
0.025,586
0.025,582
0.025,575
0.025,565
0.025,554
0.027,541
0.027,527
0.027,512
0.027,498
0.028,485
0.028,473
0.03,462
0.03,452
0.03,443
0.03,435
0.03,427
0.03,420
0.032,415
0.033,411
0.033,408
0.033,406
0.033,405
0.033,405
0.033,406
0.035,408
0.035,410
0.036,414
0.036,418
0.036,423
0.036,428
0.038,436
0.038,445
0.038,456
0.038,469
0.038,483
0.039,497
0.039,512
0.041,527
0.041,541
0.041,555
0.041,568
0.041,578
0.041,587
0.044,594
0.044,599
0.044,602
0.044,603
0.044,601
0.044,596
0.047,590
0.047,581
0.047,570
0.047,557
0.047,542
0.047,527
0.047,514
0.049,501
0.049,488
0.049,476
0.049,465
0.049,456
0.049,447
0.052,439
0.052,433
0.052,427
0.053,423
0.053,419
0.053,417
0.053,416
0.055,416
0.055,417
0.055,419
0.055,421
0.055,424
0.055,429
0.058,433
0.058,439
0.058,447
0.058,456
0.058,467
0.058,480
0.06,494
0.06,508
0.06,522
0.06,537
0.06,551
0.061,564
0.061,577
0.062,587
0.063,595
0.063,603
0.063,608
0.063,610
0.063,610
0.066,608
0.066,603
0.066,596
0.066,587
0.066,575
0.067,562
0.067,547
0.068,533
0.068,518
0.068,505
0.068,492
0.068,481
0.069,470
0.071,460
0.071,451
0.071,443
0.071,436
0.071,430
0.071,425
0.074,421
0.074,418
0.074,417
0.074,416
0.074,416
0.074,417
0.074,419
0.077,421
0.077,424
0.077,428
0.077,433
0.077,439
0.077,447
0.079,457
0.079,469
0.079,482
0.079,496
0.079,510
0.08,525
0.08,539
0.082,553
0.082,565
0.082,576
0.082,583
0.082,589
0.082,594
0.084,597
0.084,597
0.084,594
0.084,589
0.084,582
0.084,573
0.087,561
0.087,548
0.087,533
0.087,518
0.087,504
0.087,490
0.087,477
0.09,466
0.09,455
0.09,446
0.09,437
0.09,429
0.09,422
0.093,416
0.093,412
0.093,408
0.093,405
0.093,403
0.093,403
0.093,404
0.096,405
0.096,408
0.096,411
0.096,415
0.096,420
0.096,426
0.098,432
0.098,441
0.098,451
0.098,463
0.098,477
0.099,492
0.101,507
0.101,521
0.101,535
0.101,549
0.101,561
0.101,572
0.102,582
0.104,590
0.104,596
0.104,599
0.104,600
0.104,597
0.104,593
0.107,587
0.107,579
0.107,568
0.107,555
0.107,541
0.107,526
0.107,511
0.109,498
0.109,486
0.109,474
0.109,463
0.11,454
0.11,445
0.111,437
0.112,429
0.112,423
0.112,419
0.112,416
0.112,414
0.114,413
0.114,413
0.114,414
0.114,415
0.115,418
0.115,421
0.115,426
0.117,430
0.117,435
0.117,442
0.117,451
0.117,461
0.117,474
0.119,488
0.12,502
0.12,517
0.12,532
0.12,547
0.12,561
0.12,574
0.123,585
0.123,595
0.123,602
0.123,607
0.123,611
0.123,612
0.125,610
0.125,606
0.125,600
0.125,591
0.126,581
0.126,568
0.128,554
0.128,539
0.128,525
0.128,512
0.128,500
0.128,488
0.128,477
0.131,468
0.131,459
0.131,452
0.131,445
0.131,440
0.131,434
0.134,430
0.134,426
0.134,424
0.134,423
0.134,423
0.134,424
0.134,427
0.136,430
0.136,435
0.136,441
0.136,447
0.137,454
0.137,462
0.139,472
0.139,484
0.14,498
0.14,512
0.14,527
0.14,542
0.142,556
0.142,569
0.142,582
0.142,593
0.142,602
0.142,609
0.143,615
0.145,617
0.145,617
0.145,615
0.145,611
0.145,604
0.146,595
0.147,584
0.147,571
0.147,556
0.147,541
0.147,526
0.147,514
0.148,501
0.15,490
0.15,479
0.15,470
0.15,461
0.15,453
0.151,446
0.153,440
0.153,436
0.153,432
0.153,429
0.154,427
0.154,426
0.155,426
0.155,427
0.155,429
0.156,432
0.156,436
0.156,441
0.156,446
0.157,452
0.158,460
0.158,470
0.158,482
0.158,496
0.158,511
0.161,525
0.161,540
0.161,554
0.161,569
0.161,582
0.161,593
0.162,602
0.163,610
0.163,615
0.164,618
0.164,619
0.164,618
0.164,614
0.166,608
0.166,600
0.166,591
0.166,579
0.166,564
0.166,550
0.169,535
0.169,522
0.169,509
0.169,498
0.169,488
0.17,478
0.17,469
0.172,461
0.172,454
0.172,448
0.172,443
0.172,439
0.172,436
0.175,435
0.175,434
0.175,435
0.175,436
0.175,439
0.175,442
0.175,446
0.177,451
0.177,456
0.177,464
0.177,472
0.177,483
0.177,496
0.18,510
0.18,525
0.18,540
0.18,554
0.18,568
0.18,582
0.183,595
0.183,606
0.183,616
0.183,624
0.183,630
0.183,634
0.183,635
0.185,635
0.185,631
0.186,625
0.186,617
0.186,607
0.186,594
0.188,580
0.188,565
0.188,550
0.188,536
0.188,524
0.188,513
0.188,502
0.191,492
0.191,483
0.191,475
0.191,468
0.191,462
0.191,457
0.194,453
0.194,450
0.194,448
0.194,448
0.194,448
0.194,449
0.196,452
0.196,455
0.196,460
0.196,465
0.196,471
0.196,478
0.196,486
0.199,496
0.199,508
0.199,522
0.199,536
0.199,551
0.199,566
0.202,581
0.202,595
0.202,608
0.202,619
0.202,629
0.202,637
0.203,643
0.204,647
0.204,649
0.204,648
0.204,644
0.204,639
0.204,632
0.207,621
0.207,609
0.207,595
0.207,580
0.207,565
0.207,552
0.21,539
0.21,527
0.21,516
0.21,505
0.21,496
0.21,488
0.211,480
0.213,474
0.213,468
0.213,464
0.213,461
0.213,458
0.213,458
0.215,457
0.215,458
0.215,460
0.215,463
0.215,467
0.216,471
0.216,476
0.218,483
0.218,491
0.218,502
0.218,514
0.218,528
0.218,543
0.221,559
0.221,575
0.221,589
0.221,604
0.221,617
0.221,629
0.223,639
0.223,647
0.223,653
0.223,657
0.223,658
0.223,658
0.224,654
0.226,648
0.226,640
0.226,630
0.226,618
0.226,604
0.226,589
0.228,575
0.228,561
0.229,549
0.229,536
0.229,525
0.229,515
0.229,505
0.231,496
0.231,487
0.231,480
0.231,475
0.232,470
0.232,467
0.234,465
0.234,464
0.234,464
0.234,465
0.234,466
0.235,469
0.236,473
0.236,478
0.237,483
0.237,490
0.237,498
0.237,509
0.237,521
0.24,535
0.24,549
0.24,565
0.24,580
0.24,596
0.24,610
0.243,624
0.243,636
0.243,646
0.243,654
0.243,661
0.243,665
0.243,666
0.246,666
0.246,662
0.246,655
0.246,646
0.246,635
0.246,623
0.248,609
0.248,594
0.248,579
0.249,565
0.249,552
0.249,540
0.251,529
0.251,518
0.251,508
0.251,498
0.251,489
0.251,482
0.251,476
0.253,471
0.253,467
0.253,465
0.253,463
0.253,462
0.253,462
0.256,463
0.256,465
0.256,468
0.256,473
0.256,478
0.256,485
0.256,493
0.259,503
0.259,515
0.259,529
0.259,544
0.259,559
0.259,574
0.262,588
0.262,603
0.262,616
0.262,629
0.262,639
0.262,647
0.264,653
0.264,657
0.264,658
0.264,657
0.265,653
0.265,647
0.265,638
0.267,627
0.267,615
0.267,601
0.267,586
0.267,572
0.267,558
0.27,545
0.27,532
0.27,521
0.27,509
0.271,499
0.271,490
0.271,481
0.273,474
0.273,467
0.273,463
0.273,459
0.273,456
0.273,454
0.275,454
0.275,455
0.275,457
0.275,460
0.275,464
0.275,468
0.278,473
0.278,479
0.278,487
0.278,497
0.278,509
0.278,522
0.278,537
0.281,552
0.281,566
0.281,581
0.281,596
0.281,609
0.281,621
0.283,631
0.283,639
0.283,646
0.284,651
0.284,653
0.284,652
0.284,649
0.286,644
0.286,636
0.287,626
0.287,614
0.287,600
0.287,584
0.289,569
0.289,554
0.289,541
0.289,527
0.289,515
0.289,504
0.292,495
0.292,486
0.292,478
0.292,471
0.292,464
0.292,460
0.292,456
0.294,454
0.294,453
0.294,453
0.294,454
0.295,456
0.295,459
0.297,463
0.297,467
0.297,473
0.297,479
0.297,487
0.297,496
0.298,508
0.3,522
0.3,536
0.3,552
0.3,566
0.3,581
0.3,596
0.302,609
0.303,621
0.303,631
0.303,639
0.303,645
0.303,648
0.305,649
0.305,648
0.305,644
0.305,637
0.305,629
0.305,619
0.305,606
0.308,592
0.308,577
0.308,561
0.308,547
0.308,534
0.308,521
0.31,509
0.31,498
0.31,488
0.31,479
0.31,471
0.31,464
0.31,458
0.313,453
0.313,450
0.313,448
0.313,446
0.313,445
0.313,446
0.316,447
0.316,449
0.316,452
0.316,456
0.316,460
0.316,466
0.319,474
0.319,483
0.319,495
0.32,509
0.32,524
0.32,539
0.32,555
0.322,570
0.322,583
0.322,596
0.322,608
0.322,618
0.322,625
0.324,632
0.324,635
0.324,636
0.324,635
0.324,632
0.324,626
0.325,618
0.326,608
0.326,595
0.326,581
0.326,565
0.327,549
0.327,534
0.329,520
0.329,507
0.329,495
0.329,484
0.329,473
0.329,464
0.331,456
0.332,448
0.332,441
0.332,436
0.332,432
0.332,429
0.332,427
0.334,426
0.334,426
0.334,428
0.334,430
0.334,433
0.335,436
0.338,441
0.338,446
0.338,453
0.338,463
0.338,474
0.338,486
0.338,500
0.341,514
0.341,529
0.341,543
0.341,557
0.341,570
0.341,581
0.343,591
0.343,600
0.343,606
0.343,610
0.343,611
0.343,611
0.346,608
0.346,602
0.346,594
0.346,584
0.346,572
0.346,558
0.346,542
0.349,526
0.349,512
0.349,498
0.349,485
0.349,472
0.349,461
0.351,450
0.351,441
0.351,432
0.351,424
0.351,418
0.351,412
0.351,408
0.353,404
0.353,402
0.354,401
0.354,401
0.354,402
0.354,404
0.356,407
0.356,410
0.356,414
0.356,420
0.356,426
0.356,436
0.359,447
0.359,459
0.359,472
0.359,486
0.359,500
0.359,514
0.359,528
0.362,541
0.362,552
0.362,561
0.362,569
0.362,576
0.362,580
0.364,581
0.364,580
0.365,576
0.365,569
0.365,561
0.365,550
0.365,539
0.367,525
0.367,510
0.367,495
0.367,480
0.367,467
0.367,454
0.37,443
0.37,432
0.37,421
0.37,412
0.37,404
0.37,397
0.373,392
0.373,387
0.373,384
0.373,382
0.373,380
0.374,380
0.374,380
0.376,382
0.376,384
0.376,387
0.376,392
0.376,397
0.376,402
0.379,409
0.379,418
0.379,429
0.379,441
0.379,455
0.379,469
0.379,484
0.381,499
0.381,513
0.381,526
0.381,538
0.381,549
0.381,558
0.384,565
0.384,569
0.384,571
0.384,571
0.384,568
0.384,564
0.386,556
0.386,547
0.386,535
0.386,523
0.386,508
0.387,494
0.387,480
0.389,467
0.389,455
0.389,443
0.389,432
0.389,423
0.39,413
0.392,405
0.392,399
0.392,393
0.392,388
0.392,384
0.392,382
0.393,381
0.395,380
0.395,381
0.395,382
0.395,385
0.395,388
0.395,393
0.398,398
0.398,403
0.398,410
0.398,419
0.398,431
0.398,443
0.4,457
0.4,472
0.4,486
0.4,502
0.4,516
0.4,530
0.4,542
0.403,552
0.403,561
0.403,569
0.404,574
0.404,576
0.404,576
0.406,574
0.406,569
0.406,563
0.406,554
0.406,542
0.406,529
0.407,514
0.409,500
0.409,486
0.409,473
0.409,461
0.409,449
0.409,439
0.411,429
0.411,421
0.411,413
0.411,407
0.411,401
0.411,397
0.414,393
0.414,391
0.414,390
0.414,390
0.414,390
0.414,392
0.414,394
0.416,397
0.416,400
0.416,405
0.416,410
0.416,418
0.416,427
0.419,438
0.419,451
0.419,465
0.419,480
0.419,495
0.419,510
0.419,525
0.422,539
0.422,551
0.422,562
0.422,570
0.422,577
0.422,582
0.425,584
0.425,584
0.425,582
0.425,576
0.425,569
0.425,559
0.428,548
0.428,534
0.428,519
0.428,504
0.428,489
0.428,475
0.428,462
0.43,450
0.43,439
0.43,428
0.43,419
0.43,410
0.43,402
0.433,395
0.433,389
0.433,384
0.433,381
0.433,379
0.433,378
0.433,377
0.436,378
0.436,380
0.437,383
0.437,387
0.437,391
0.437,396
0.439,402
0.439,410
0.439,420
0.439,432
0.439,446
0.439,460
0.441,474
0.441,488
0.441,502
0.441,515
0.441,527
0.441,538
0.441,547
0.444,553
0.444,557
0.444,559
0.444,559
0.444,557
0.444,552
0.447,545
0.447,536
0.447,525
0.447,512
0.447,497
0.447,482
0.448,468
0.449,455
0.449,443
0.449,431
0.45,420
0.45,410
0.45,400
0.452,392
0.452,384
0.452,378
0.452,372
0.452,368
0.453,364
0.455,362
0.455,362
0.455,362
0.455,364
0.455,367
0.455,370
0.455,374
0.457,379
0.458,385
0.458,392
0.458,400
0.458,411
0.458,423
0.46,437
0.46,451
0.46,465
0.46,480
0.461,495
0.461,508
0.461,521
0.463,532
0.463,541
0.463,548
0.463,554
0.463,557
0.463,558
0.466,556
0.466,552
0.466,546
0.466,537
0.466,526
0.466,513
0.468,500
0.468,485
0.469,470
0.469,457
0.469,445
0.469,432
0.469,422
0.471,412
0.471,403
0.471,395
0.471,388
0.471,382
0.472,377
0.474,373
0.474,370
0.474,368
0.474,368
0.474,368
0.474,370
0.474,372
0.477,376
0.477,380
0.477,385
0.477,391
0.477,398
0.477,407
0.479,419
0.479,432
0.479,447
0.479,462
0.479,477
0.479,492
0.482,507
0.482,520
0.482,533
0.482,544
0.482,553
0.482,561
0.483,568
0.485,571
0.485,572
0.485,571
0.485,567
0.485,561
0.485,553
0.487,543
0.487,531
0.487,518
0.487,504
0.487,490
0.487,478
0.487,466
0.49,455
0.49,445
0.49,436
0.49,427
0.49,420
0.491,413
0.492,408
0.492,403
0.492,399
0.493,396
0.493,395
0.493,396
0.495,397
0.495,399
0.495,401
0.495,405
0.495,410
0.495,415
0.496,421
0.498,428
0.498,437
0.498,448
0.498,461
0.498,476
0.498,490
0.5,506
0.5,521
0.5,536
0.5,550
0.501,563
0.501,575
0.501,585
0.503,594
0.503,601
0.503,606
0.503,607
0.503,606
0.503,602
0.507,596
0.507,588
0.507,578
0.507,566
0.507,552
0.507,537
0.509,523
0.509,510
0.509,498
0.509,486
0.509,476
0.509,467
0.509,457
0.512,449
0.512,442
0.512,436
0.512,431
0.512,427
0.512,424
0.515,422
0.515,421
0.515,422
0.515,423
0.515,426
0.515,430
0.515,435
0.517,439
0.517,445
0.517,452
0.517,461
0.517,472
0.517,485
0.52,500
0.52,515
0.52,531
0.52,547
0.52,562
0.52,577
0.523,591
0.523,603
0.523,613
0.523,621
0.523,628
0.523,632
0.523,633
0.526,632
0.526,628
0.526,621
0.526,613
0.526,602
0.526,590
0.528,576
0.528,561
0.528,547
0.528,534
0.528,522
0.528,510
0.528,499
0.531,489
0.531,480
0.531,472
0.531,464
0.531,457
0.531,452
0.534,447
0.534,444
0.534,442
0.534,441
0.534,441
0.534,442
0.536,444
0.536,447
0.537,451
0.537,455
0.537,460
0.537,467
0.537,475
0.539,485
0.539,497
0.539,511
0.539,525
0.539,539
0.539,554
0.542,568
0.542,581
0.542,593
0.542,604
0.542,613
0.542,621
0.542,627
0.545,630
0.545,631
0.545,630
0.545,625
0.545,619
0.545,610
0.547,599
0.547,587
0.547,572
0.547,557
0.547,542
0.547,529
0.549,516
0.549,503
0.549,491
0.549,481
0.55,471
0.55,461
0.55,454
0.552,447
0.552,441
0.552,436
0.552,433
0.553,431
0.553,429
0.555,429
0.555,429
0.555,430
0.555,433
0.555,437
0.555,441
0.555,446
0.557,452
0.558,460
0.558,470
0.558,482
0.558,495
0.558,510
0.56,525
0.56,540
0.56,554
0.56,568
0.56,581
0.56,592
0.563,602
0.563,609
0.563,615
0.563,618
0.563,619
0.563,617
0.563,612
0.565,606
0.566,597
0.566,586
0.566,573
0.566,558
0.566,542
0.568,526
0.568,512
0.569,499
0.569,486
0.569,474
0.569,463
0.569,453
0.572,444
0.572,436
0.572,429
0.572,423
0.572,419
0.572,416
0.574,413
0.574,412
0.574,412
0.574,413
0.574,415
0.574,417
0.577,421
0.577,425
0.577,430
0.577,435
0.577,443
0.577,452
0.577,464
0.58,478
0.58,492
0.58,507
0.58,522
0.58,536
0.58,550
0.583,564
0.583,576
0.583,586
0.583,594
0.583,599
0.583,603
0.583,604
0.585,603
0.585,600
0.585,593
0.585,585
0.585,574
0.585,562
0.588,547
0.588,532
0.588,516
0.588,502
0.588,488
0.588,476
0.591,466
0.591,455
0.591,445
0.591,436
0.591,428
0.591,421
0.591,415
0.594,410
0.594,406
0.594,404
0.594,403
0.594,403
0.594,405
0.596,407
0.596,409
0.596,413
0.596,417
0.596,423
0.596,429
0.596,437
0.599,447
0.599,458
0.599,471
0.599,485
0.599,499
0.599,514
0.602,528
0.602,542
0.602,555
0.602,566
0.602,576
0.602,584
0.604,591
0.605,595
0.605,597
0.605,596
0.606,593
0.606,587
0.606,578
0.607,568
0.607,556
0.607,542
0.607,527
0.607,512
0.608,497
0.61,484
0.61,471
0.61,460
0.61,449
0.61,439
0.61,430
0.61,422
0.613,414
0.613,408
0.613,403
0.613,399
0.613,396
0.613,395
0.615,395
0.615,396
0.615,398
0.615,401
0.615,404
0.615,408
0.618,413
0.618,418
0.618,427
0.618,437
0.618,449
0.618,462
0.618,476
0.621,491
0.621,506
0.621,521
0.621,535
0.621,548
0.621,560
0.624,571
0.624,579
0.624,586
0.624,590
0.624,592
0.624,591
0.624,588
0.626,583
0.626,575
0.626,565
0.626,553
0.626,538
0.626,524
0.629,509
0.629,495
0.629,482
0.629,470
0.629,459
0.629,449
0.632,440
0.632,431
0.632,424
0.632,417
0.632,412
0.632,408
0.632,404
0.634,402
0.634,400
0.634,400
0.634,401
0.634,403
0.634,407
0.636,411
0.637,415
0.637,420
0.637,426
0.637,434
0.637,444
0.637,455
0.64,468
0.64,482
0.64,498
0.64,513
0.64,527
0.64,542
0.643,555
0.643,568
0.643,578
0.643,587
0.643,594
0.643,598
0.645,600
0.645,600
0.645,597
0.645,592
0.645,585
0.645,576
0.645,565
0.648,552
0.648,538
0.648,523
0.648,509
0.648,496
0.648,484
0.651,474
0.651,463
0.651,454
0.651,445
0.651,438
0.651,432
0.651,426
0.653,422
0.653,418
0.653,416
0.653,415
0.654,414
0.654,415
0.656,417
0.656,421
0.656,425
0.656,429
0.656,435
0.656,441
0.659,449
0.659,458
0.659,469
0.659,482
0.659,497
0.659,512
0.66,528
0.662,543
0.662,557
0.662,571
0.662,584
0.662,594
0.663,604
0.664,611
0.664,616
0.664,618
0.665,618
0.665,616
0.665,610
0.665,603
0.667,593
0.667,582
0.667,569
0.667,554
0.667,539
0.667,526
0.67,513
0.67,502
0.67,490
0.67,479
0.67,469
0.671,460
0.672,452
0.672,444
0.672,438
0.672,433
0.672,429
0.673,426
0.673,424
0.675,424
0.675,424
0.675,426
0.675,430
0.675,434
0.675,438
0.678,443
0.678,449
0.678,457
0.678,466
0.678,477
0.678,491
0.678,506
0.681,521
0.681,536
0.681,552
0.681,566
0.681,579
0.682,591
0.683,602
0.683,611
0.684,617
0.684,622
0.684,624
0.684,623
0.686,621
0.686,616
0.686,609
0.686,599
0.687,588
0.687,574
0.687,559
0.689,544
0.689,529
0.689,516
0.689,503
0.689,492
0.689,481
0.692,470
0.692,461
0.692,453
0.692,446
0.692,439
0.692,434
0.692,430
0.694,427
0.694,426
0.694,425
0.694,426
0.694,427
0.694,429
0.697,432
0.697,436
0.697,441
0.697,446
0.697,453
0.697,462
0.699,473
0.699,486
0.699,500
0.699,515
0.699,531
0.699,546
0.7,561
0.702,575
0.702,588
0.702,598
0.703,607
0.703,613
0.703,618
0.705,620
0.705,619
0.705,616
0.705,611
0.705,603
0.705,593
0.705,582
0.707,568
0.707,553
0.708,536
0.708,521
0.708,506
0.708,494
0.71,481
0.71,470
0.71,460
0.71,450
0.711,442
0.711,435
0.713,429
0.713,423
0.713,420
0.713,417
0.713,415
0.713,415
0.713,416
0.715,417
0.716,419
0.716,423
0.716,428
0.716,432
0.716,438
0.718,445
0.718,454
0.718,465
0.718,477
0.719,491
0.719,505
0.719,521
0.721,535
0.721,550
0.721,563
0.721,575
0.721,586
0.721,595
0.724,602
0.724,607
0.724,609
0.724,610
0.724,607
0.724,602
0.727,594
0.727,584
0.727,572
0.727,558
0.727,543
0.727,527
0.727,513
0.73,499
0.73,486
0.73,474
0.73,463
0.73,453
0.73,444
0.732,436
0.732,429
0.732,423
0.732,418
0.732,415
0.732,412
0.733,410
0.735,409
0.735,410
0.735,411
0.735,414
0.735,417
0.735,421
0.737,426
0.738,432
0.738,439
0.738,447
0.738,458
0.738,471
0.741,485
0.741,499
0.741,514
0.741,529
0.741,544
0.741,557
0.741,570
0.743,581
0.743,590
0.743,598
0.743,603
0.743,606
0.743,607
0.745,605
0.745,600
0.746,592
0.746,584
0.746,573
0.746,560
0.746,546
0.749,531
0.749,517
0.749,503
0.749,490
0.749,478
0.749,467
0.751,457
0.751,448
0.751,440
0.751,433
0.751,427
0.751,422
0.754,418
0.754,415
0.754,413
0.754,412
0.754,412
0.754,414
0.754,417
0.757,421
0.757,425
0.757,431
0.757,437
0.757,445
0.758,454
0.76,465
0.76,479
0.76,494
0.76,509
0.76,524
0.76,539
0.76,554
0.762,568
0.762,582
0.762,593
0.762,601
0.763,609
0.763,614
0.765,617
0.765,619
0.765,617
0.765,613
0.765,606
0.765,597
0.768,586
0.768,573
0.768,558
0.768,544
0.768,529
0.768,516
0.768,502
0.77,490
0.77,480
0.77,469
0.77,460
0.77,453
0.77,446
0.773,440
0.773,435
0.773,430
0.773,427
0.773,426
0.773,425
0.773,426
0.776,428
0.776,430
0.776,434
0.776,439
0.776,444
0.776,450
0.779,458
0.779,467
0.779,478
0.779,491
0.779,505
0.779,520
0.781,535
0.781,550
0.781,564
0.781,578
0.781,591
0.781,602
0.781,612
0.784,620
0.784,626
0.784,629
0.784,629
0.784,627
0.784,622
0.787,616
0.787,607
0.787,596
0.787,583
0.788,568
0.788,553
0.788,539
0.79,526
0.79,513
0.79,501
0.79,490
0.79,479
0.79,471
0.792,462
0.792,455
0.792,449
0.792,444
0.792,440
0.792,437
0.795,435
0.795,435
0.795,435
0.795,436
0.795,438
0.795,442
0.795,446
0.798,451
0.798,457
0.798,463
0.798,472
0.798,484
0.798,497
0.8,511
0.8,526
0.8,542
0.8,557
0.8,572
0.8,587
0.8,599
0.803,610
0.804,620
0.804,628
0.804,634
0.804,636
0.804,637
0.806,635
0.806,630
0.806,624
0.806,615
0.806,603
0.807,590
0.809,575
0.809,559
0.809,544
0.809,530
0.809,517
0.809,505
0.809,493
0.811,482
0.811,472
0.811,463
0.811,456
0.811,449
0.811,444
0.814,440
0.814,438
0.814,436
0.814,435
0.814,435
0.814,436
0.815,439
0.817,442
0.817,445
0.817,450
0.817,456
0.817,462
0.817,470
0.819,480
0.819,493
0.82,507
0.82,522
0.82,537
0.82,552
0.821,567
0.821,581
0.822,594
0.822,605
0.822,614
0.822,622
0.822,627
0.825,630
0.825,631
0.825,629
0.825,625
0.825,617
0.825,608
0.828,597
0.828,584
0.828,569
0.828,553
0.828,538
0.828,524
0.828,510
0.83,498
0.83,486
0.83,476
0.83,466
0.83,457
0.83,449
0.833,443
0.833,437
0.833,432
0.833,429
0.833,427
0.833,426
0.836,426
0.836,426
0.836,429
0.836,431
0.836,435
0.836,440
0.836,446
0.838,452
0.838,460
0.838,470
0.838,482
0.839,496
0.839,511
0.841,526
0.841,542
0.841,557
0.841,571
0.841,584
0.842,595
0.842,605
0.844,613
0.844,618
0.844,621
0.844,621
0.844,619
0.844,615
0.846,609
0.846,599
0.846,588
0.846,575
0.847,559
0.847,543
0.849,529
0.849,515
0.849,502
0.849,490
0.849,478
0.849,468
0.849,458
0.851,450
0.851,442
0.851,435
0.852,430
0.852,426
0.852,422
0.854,420
0.854,419
0.854,419
0.854,420
0.854,422
0.854,425
0.854,428
0.857,433
0.857,439
0.857,446
0.857,455
0.857,465
0.857,479
0.859,493
0.86,509
0.86,524
0.86,539
0.86,554
0.86,569
0.862,582
0.862,593
0.862,603
0.862,611
0.863,617
0.863,621
0.863,622
0.865,622
0.865,618
0.865,612
0.865,603
0.865,593
0.865,581
0.868,567
0.868,551
0.868,537
0.868,524
0.868,511
0.868,499
0.868,488
0.87,478
0.87,469
0.87,460
0.87,452
0.87,446
0.87,440
0.874,435
0.874,431
0.874,429
0.874,428
0.874,429
0.874,430
0.877,432
0.877,435
0.877,439
0.877,444
0.877,450
0.877,456
0.877,465
0.879,476
0.879,489
0.879,503
0.879,518
0.879,533
0.879,548
0.882,564
0.882,578
0.882,591
0.882,603
0.882,613
0.882,621
0.883,628
0.885,632
0.885,633
0.885,633
0.885,629
0.885,622
0.885,614
0.887,603
0.887,591
0.887,577
0.887,561
0.887,546
0.887,532
0.89,519
0.89,507
0.89,496
0.89,485
0.89,476
0.89,468
0.89,460
0.893,454
0.893,448
0.893,444
0.893,440
0.893,437
0.893,436
0.896,435
0.896,436
0.896,438
0.896,441
0.896,445
0.896,449
0.896,454
0.898,460
0.898,468
0.898,478
0.898,490
0.898,504
0.898,519
0.901,534
0.901,549
0.901,564
0.901,578
0.901,591
0.902,603
0.903,613
0.903,621
0.903,627
0.903,631
0.903,632
0.903,631
0.904,627
0.906,621
0.906,613
0.906,602
0.906,589
0.906,575
0.906,559
0.909,543
0.909,529
0.909,515
0.909,502
0.909,490
0.909,479
0.909,468
0.912,459
0.912,450
0.912,443
0.912,437
0.912,431
0.912,427
0.914,425
0.914,424
0.914,425
0.914,426
0.914,428
0.914,431
0.917,435
0.917,440
0.917,445
0.917,452
0.917,459
0.918,469
0.918,482
0.92,496
0.92,511
0.921,526
0.921,542
0.921,557
0.921,571
0.923,584
0.923,596
0.923,606
0.923,614
0.923,620
0.923,623
0.923,624
0.925,623
0.926,619
0.926,613
0.926,605
0.926,594
0.926,582
0.928,568
0.928,553
0.928,538
0.928,523
0.928,509
0.928,496
0.931,485
0.931,473
0.931,463
0.931,454
0.931,446
0.931,439
0.931,432
0.933,427
0.934,423
0.934,419
0.934,417
0.934,417
0.934,417
0.936,419
0.937,422
0.937,426
0.937,430
0.937,436
0.937,442
0.937,449
0.939,459
0.939,471
0.939,484
0.939,499
0.939,514
0.939,529
0.942,543
0.942,557
0.942,570
0.942,582
0.942,592
0.942,600
0.945,607
0.945,610
0.945,611
0.945,610
0.945,607
0.945,601
0.945,592
0.947,582
0.947,570
0.947,556
0.947,541
0.947,525
0.947,511
0.949,498
0.949,485
0.95,473
0.95,461
0.95,451
0.95,442
0.95,433
0.952,425
0.952,419
0.952,414
0.952,410
0.953,407
0.953,405
0.955,405
0.955,406
0.955,408
0.955,412
0.955,416
0.955,421
0.958,426
0.958,432
0.958,439
0.958,449
0.958,460
0.958,473
0.958,489
0.961,504
0.961,519
0.961,533
0.961,548
0.961,561
0.961,573
0.963,583
0.963,591
0.963,597
0.964,602
0.964,603
0.964,603
0.964,600
0.966,595
0.966,587
0.966,576
0.967,564
0.967,550
0.967,534
0.969,519
0.969,504
0.969,491
0.969,478
0.969,467
0.969,456
0.972,447
0.972,438
0.972,430
0.972,423
0.972,417
0.972,413
0.972,408
0.974,405
0.974,404
0.974,404
0.974,405
0.974,407
0.974,410
0.977,414
0.977,419
0.977,424
0.977,430
0.977,439
0.977,449
0.977,461
0.979,475
0.98,491
0.98,506
0.98,522
0.98,538
0.98,553
0.982,568
0.982,580
0.982,591
0.983,600
0.983,607
0.983,612
0.985,614
0.985,614
0.985,611
0.985,605
0.985,597
0.985,587
0.985,576
0.987,562
0.987,547
0.988,532
0.988,517
0.988,504
0.988,492
0.99,480
0.99,470
0.99,460
0.99,451
0.99,443
0.991,436
0.991,430
0.994,425
0.994,422
0.994,420
0.994,420
0.994,420
0.994,421
0.995,424
0.996,428
0.996,432
0.996,436
0.996,442
0.996,448
0.998,456
0.998,465
0.998,477
0.998,491
0.998,506
0.998,522
0.999,539
1.001,554
1.001,569
1.001,584
1.001,597
1.001,609
1.001,619
1.003,627
1.003,632
1.004,634
1.004,634
1.004,631
1.004,626
1.004,618
1.006,609
1.006,598
1.007,584
1.007,569
1.007,554
1.007,540
1.009,527
1.009,514
1.009,503
1.009,491
1.009,482
1.009,473
1.011,465
1.011,458
1.011,452
1.011,447
1.011,443
1.013,440
1.013,439
1.015,439
1.015,439
1.015,442
1.015,445
1.015,449
1.015,454
1.018,460
1.018,466
1.018,473
1.018,483
1.018,495
1.018,509
1.018,524
1.02,540
1.02,555
1.02,571
1.021,587
1.021,601
1.021,614
1.023,624
1.023,634
1.023,641
1.023,646
1.023,649
1.023,649
1.026,646
1.026,640
1.026,633
1.026,623
1.026,612
1.026,598
1.026,582
1.029,566
1.029,550
1.029,537
1.029,523
1.029,511
1.029,499
1.031,489
1.031,480
1.031,472
1.032,464
1.032,459
1.032,453
1.032,449
1.034,446
1.035,443
1.035,442
1.035,443
1.035,445
1.035,447
1.037,451
1.037,455
1.037,461
1.037,467
1.037,475
1.037,485
1.039,497
1.039,510
1.039,525
1.039,540
1.04,555
1.04,570
1.04,585
1.043,600
1.043,613
1.043,624
1.043,633
1.043,640
1.043,645
1.045,647
1.045,646
1.045,642
1.045,636
1.045,628
1.046,617
1.046,605
1.047,591
1.047,575
1.049,560
1.049,545
1.049,530
1.049,518
1.051,506
1.051,495
1.051,485
1.051,476
1.051,467
1.051,460
1.053,454
1.053,448
1.053,443
1.053,441
1.053,439
1.053,438
1.054,438
1.056,439
1.056,442
1.056,445
1.056,450
1.057,455
1.057,461
1.058,468
1.058,478
1.058,490
1.058,503
1.058,517
1.058,532
1.059,548
1.062,563
1.062,577
1.062,591
1.062,604
1.062,615
1.063,625
1.064,633
1.064,638
1.065,641
1.065,641
1.065,639
1.065,633
1.067,626
1.067,616
1.067,604
1.067,590
1.067,574
1.067,558
1.067,544
1.069,530
1.069,517
1.069,505
1.07,494
1.07,483
1.07,474
1.072,466
1.072,458
1.072,452
1.072,446
1.072,442
1.072,439
1.072,438
1.075,437
1.075,436
1.075,437
1.075,439
1.075,441
1.075,446
1.078,450
1.078,456
1.078,463
1.078,473
1.078,484
1.078,497
1.081,512
1.081,526
1.081,541
1.081,557
1.081,571
1.081,584
1.081,596
1.083,607
1.083,616
1.083,624
1.083,630
1.083,633
1.083,633
1.086,631
1.086,626
1.086,619
1.086,611
1.086,600
1.086,587
1.086,572
1.088,557
1.089,542
1.089,529
1.09,516
1.09,504
1.09,494
1.091,484
1.091,475
1.091,467
1.091,459
1.091,453
1.091,448
1.094,444
1.094,440
1.094,438
1.094,437
1.094,437
1.094,439
1.094,441
1.096,445
1.096,449
1.096,455
1.097,461
1.097,469
1.097,478
1.099,490
1.099,503
1.099,517
1.099,532
1.099,548
1.099,564
1.1,579
1.102,594
1.102,608
1.102,620
1.102,630
1.102,638
1.102,644
1.105,646
1.105,647
1.105,645
1.105,641
1.105,634
1.105,624
1.108,613
1.108,599
1.108,584
1.108,568
1.108,553
1.108,539
1.108,525
1.111,514
1.111,503
1.111,493
1.111,484
1.111,476
1.111,468
1.113,462
1.113,456
1.113,452
1.113,449
1.113,447
1.113,446
1.113,446
1.116,447
1.116,450
1.116,454
1.116,458
1.116,464
1.116,469
1.119,477
1.119,487
1.119,498
1.119,513
1.119,528
1.119,544
1.121,560
1.121,575
1.121,591
1.121,606
1.121,620
1.121,632
1.121,642
1.124,650
1.124,656
1.124,658
1.124,659
1.124,657
1.124,653
1.127,646
1.127,637
1.127,626
1.127,612
1.127,597
1.127,582
1.127,566
1.13,552
1.13,539
1.13,527
1.13,515
1.13,505
1.13,495
1.132,486
1.132,478
1.132,471
1.132,465
1.132,461
1.132,459
1.135,457
1.135,456
1.135,457
1.135,458
1.135,460
1.135,464
1.135,468
1.137,473
1.137,479
1.137,485
1.137,494
1.137,504
1.137,517
1.14,531
1.141,546
1.141,562
1.141,578
1.141,593
1.141,608
1.141,621
1.143,633
1.143,643
1.143,651
1.144,657
1.144,660
1.144,661
1.146,659
1.146,654
1.146,647
1.146,638
1.146,626
1.146,613
1.148,598
1.148,582
1.148,567
1.148,553
1.148,540
1.148,527
1.148,514
1.151,503
1.152,493
1.152,484
1.152,476
1.152,469
1.152,463
1.153,458
1.153,454
1.153,452
1.153,451
1.155,451
1.155,452
1.155,454
1.157,457
1.157,461
1.157,465
1.157,470
1.157,477
1.157,485
1.16,496
1.16,508
1.16,521
1.16,536
1.16,551
1.16,566
1.162,581
1.162,595
1.162,608
1.162,620
1.162,630
1.162,639
1.162,645
1.165,649
1.165,650
1.165,648
1.166,644
1.166,637
1.166,628
1.167,617
1.167,603
1.167,587
1.167,570
1.168,555
1.168,541
1.168,527
1.171,515
1.171,503
1.171,492
1.171,483
1.171,473
1.171,465
1.173,458
1.173,453
1.173,448
1.173,445
1.173,443
1.173,442
1.176,442
1.176,442
1.176,445
1.176,448
1.176,452
1.176,457
1.176,462
1.178,469
1.178,476
1.178,487
1.178,500
1.178,514
1.178,529
1.181,545
1.181,561
1.181,576
1.181,591
1.182,604
1.182,616
1.182,626
1.184,634
1.184,640
1.184,644
1.184,646
1.184,644
1.184,640
1.187,634
1.188,625
1.188,614
1.188,601
1.188,587
1.188,571
1.189,555
1.189,540
1.189,526
1.189,514
1.19,502
1.19,491
1.19,481
1.192,472
1.192,463
1.192,456
1.192,450
1.192,445
1.192,442
1.195,440
1.195,439
1.195,439
1.195,439
1.195,441
1.195,444
1.195,448
1.197,453
1.198,458
1.198,465
1.198,474
1.198,484
1.198,497
1.2,511
1.2,526
1.2,541
1.2,557
1.2,573
1.2,587
1.203,601
1.203,613
1.203,622
1.204,631
1.204,637
1.204,640
1.204,641
1.206,639
1.206,634
1.206,628
1.206,618
1.206,607
1.206,594
1.209,579
1.209,563
1.209,547
1.209,532
1.209,519
1.209,506
1.209,494
1.211,482
1.211,472
1.211,462
1.211,454
1.211,447
1.211,441
1.214,436
1.214,433
1.214,430
1.214,430
1.214,430
1.214,430
1.216,432
1.216,435
1.216,439
1.216,443
1.216,449
1.217,456
1.217,464
1.219,474
1.219,487
1.219,501
1.219,516
1.219,532
1.219,549
1.222,564
1.222,580
1.222,593
1.222,605
1.222,615
1.222,624
1.222,631
1.224,634
1.224,635
1.225,634
1.225,631
1.225,625
1.225,617
1.227,606
1.227,594
1.227,579
1.227,563
1.227,548
1.227,534
1.23,520
1.23,506
1.23,494
1.23,482
1.231,472
1.231,463
1.231,455
1.233,448
1.233,443
1.233,439
1.233,436
1.233,434
1.233,434
1.236,434
1.236,436
1.236,438
1.236,441
1.236,446
1.236,451
1.236,456
1.238,463
1.238,471
1.238,482
1.238,495
1.238,509
1.238,525
1.241,540
1.241,557
1.241,573
1.241,587
1.241,602
1.241,614
1.244,624
1.244,632
1.244,638
1.244,641
1.244,642
1.244,641
1.244,637
1.246,630
1.246,621
1.246,610
1.246,598
1.246,583
1.246,567
1.249,551
1.249,536
1.25,522
1.25,509
1.25,497
1.25,485
1.25,475
1.252,466
1.252,457
1.252,450
1.252,444
1.253,438
1.253,434
1.255,431
1.255,429
1.255,428
1.255,428
1.255,429
1.255,432
1.258,435
1.258,440
1.258,445
1.258,451
1.258,459
1.258,469
1.258,481
1.26,495
1.26,510
1.26,524
1.26,539
1.26,553
1.261,567
1.263,580
1.263,592
1.263,602
1.263,610
1.263,616
1.263,620
1.263,621
1.266,620
1.266,617
1.266,611
1.266,603
1.266,592
1.266,580
1.268,565
1.268,549
1.268,533
1.268,518
1.268,504
1.268,490
1.271,478
1.271,466
1.271,456
1.271,446
1.271,438
1.271,431
1.271,424
1.274,419
1.274,415
1.274,412
1.274,410
1.274,408
1.275,409
1.277,410
1.277,413
1.277,416
1.277,420
1.277,425
1.277,432
1.277,439
1.279,448
1.279,461
1.279,475
1.279,491
1.279,507
1.279,522
1.282,538
1.282,553
1.282,568
1.282,581
1.282,591
1.282,599
1.285,606
1.285,609
1.285,610
1.285,610
1.285,606
1.285,600
1.285,592
1.287,581
1.288,568
1.288,554
1.288,539
1.288,523
1.288,508
1.29,494
1.291,482
1.291,469
1.291,458
1.291,447
1.291,437
1.291,429
1.293,421
1.293,414
1.293,409
1.293,404
1.293,401
1.294,398
1.296,398
1.296,398
1.296,400
1.296,403
1.296,407
1.296,411
1.298,416
1.298,422
1.298,429
1.298,439
1.298,451
1.298,465
1.298,480
1.301,495
1.301,511
1.301,526
1.301,540
1.301,554
1.301,566
1.304,577
1.304,585
1.304,592
1.304,596
1.304,598
1.304,597
1.305,594
1.306,589
1.306,581
1.306,571
1.306,559
1.307,545
1.307,530
1.309,514
1.309,499
1.309,486
1.309,473
1.309,461
1.31,450
1.312,440
1.312,431
1.312,423
1.312,416
1.312,410
1.313,405
1.313,402
1.315,399
1.315,397
1.315,397
1.315,398
1.315,400
1.316,403
1.317,407
1.317,413
1.317,418
1.317,424
1.317,432
1.317,442
1.318,454
1.32,468
1.321,484
1.321,500
1.321,516
1.321,531
1.321,546
1.322,560
1.322,573
1.323,584
1.323,593
1.323,601
1.323,605
1.326,607
1.326,608
1.326,605
1.326,599
1.326,591
1.327,581
1.327,569
1.328,555
1.328,540
1.328,524
1.328,509
1.329,496
1.329,483
1.331,471
1.331,460
1.331,450
1.331,441
1.331,434
1.331,427
1.332,421
1.334,416
1.334,412
1.334,410
1.334,408
1.334,408
1.334,409
1.336,411
1.336,413
1.336,418
1.337,423
1.337,428
1.337,435
1.338,444
1.339,454
1.339,466
1.339,479
1.339,494
1.339,510
1.339,526
1.342,542
1.342,558
1.342,573
1.342,586
1.342,597
1.342,607
1.344,615
1.344,620
1.344,622
1.344,622
1.344,620
1.344,615
1.344,608
1.347,598
1.347,586
1.347,572
1.347,556
1.347,541
1.347,526
1.35,512
1.35,499
1.35,488
1.35,476
1.35,466
1.35,457
1.353,448
1.353,441
1.353,435
1.353,430
1.353,425
1.354,423
1.354,421
1.355,420
1.355,420
1.355,422
1.355,424
1.355,429
1.356,433
1.357,438
1.358,445
1.358,453
1.358,462
1.358,474
1.358,488
1.358,503
1.36,519
1.36,535
1.36,551
1.36,566
1.36,581
1.361,594
1.364,606
1.364,615
1.364,623
1.364,628
1.364,631
1.364,631
1.366,628
1.366,623
1.366,616
1.366,607
1.366,595
1.366,582
1.366,567
1.369,551
1.369,537
1.369,523
1.369,510
1.369,498
1.369,487
1.372,477
1.372,468
1.372,459
1.372,452
1.372,446
1.372,441
1.372,437
1.375,434
1.375,433
1.375,433
1.375,434
1.375,437
1.375,440
1.377,444
1.377,448
1.377,454
1.377,461
1.377,469
1.377,478
1.38,490
1.38,504
1.38,520
1.38,537
1.38,553
1.38,570
1.38,586
1.383,601
1.383,615
1.383,627
1.383,637
1.383,645
1.383,651
1.385,655
1.385,655
1.385,653
1.386,648
1.386,640
1.386,631
1.386,619
1.388,605
1.388,589
1.388,572
1.388,556
1.388,541
1.388,527
1.391,514
1.391,502
1.391,491
1.391,481
1.391,472
1.391,464
1.393,457
1.393,451
1.393,447
1.393,444
1.393,441
1.393,441
1.393,441
1.396,442
1.396,444
1.396,448
1.396,451
1.396,457
1.396,463
1.399,470
1.399,479
1.399,491
1.399,504
1.399,519
1.399,534
1.399,550
1.402,566
1.402,581
1.402,595
1.402,608
1.402,619
1.402,628
1.404,635
1.404,640
1.404,642
1.405,642
1.405,639
1.405,633
1.407,625
1.407,615
1.407,603
1.407,588
1.407,572
1.407,555
1.407,539
1.41,525
1.41,510
1.41,498
1.41,486
1.41,475
1.41,465
1.413,457
1.413,449
1.413,443
1.413,437
1.413,433
1.413,430
1.413,428
1.416,427
1.416,428
1.416,430
1.416,433
1.416,437
1.416,441
1.418,447
1.418,453
1.418,461
1.418,470
1.418,482
1.419,496
1.42,512
1.421,528
1.421,544
1.421,560
1.421,576
1.421,591
1.421,605
1.423,616
1.423,626
1.423,634
1.424,640
1.424,642
1.424,643
1.426,642
1.426,637
1.426,630
1.426,620
1.426,608
1.426,594
1.427,579
1.429,563
1.429,547
1.429,532
1.429,518
1.429,506
1.429,495
1.432,485
1.432,475
1.432,467
1.432,459
1.432,453
1.433,447
1.434,443
1.434,440
1.435,439
1.435,439
1.435,440
1.435,442
1.435,445
1.437,449
1.437,453
1.437,459
1.437,466
1.437,474
1.438,483
1.44,495
1.44,510
1.44,525
1.44,541
1.44,558
1.44,575
1.44,592
1.442,607
1.443,621
1.443,633
1.443,644
1.443,652
1.443,659
1.445,662
1.445,663
1.445,661
1.446,656
1.446,648
1.446,638
1.448,626
1.448,611
1.448,596
1.448,579
1.448,563
1.448,549
1.448,536
1.45,522
1.451,510
1.451,499
1.451,489
1.451,480
1.451,472
1.453,465
1.453,459
1.453,455
1.453,451
1.454,449
1.454,448
1.454,449
1.456,450
1.456,453
1.456,457
1.456,462
1.456,467
1.456,473
1.459,481
1.459,490
1.459,502
1.459,516
1.459,531
1.459,547
1.461,563
1.461,579
1.461,595
1.461,610
1.461,624
1.462,636
1.462,646
1.464,654
1.464,660
1.464,663
1.464,664
1.464,662
1.465,657
1.467,649
1.467,639
1.467,626
1.467,612
1.467,596
1.467,579
1.467,563
1.469,549
1.47,535
1.47,522
1.47,509
1.47,497
1.47,487
1.472,477
1.472,468
1.472,461
1.472,455
1.473,450
1.473,446
1.475,443
1.475,441
1.475,441
1.475,442
1.475,444
1.475,448
1.475,452
1.478,456
1.478,462
1.478,468
1.478,477
1.478,488
1.478,502
1.48,516
1.48,532
1.481,548
1.481,564
1.481,581
1.481,596
1.481,610
1.483,622
1.483,633
1.483,641
1.484,647
1.484,650
1.484,650
1.486,647
1.486,641
1.486,633
1.486,623
1.486,610
1.486,595
1.488,579
1.489,562
1.489,546
1.489,531
1.489,517
1.489,504
1.489,491
1.491,478
1.491,467
1.492,457
1.492,448
1.492,440
1.492,434
1.494,428
1.494,424
1.494,422
1.494,420
1.494,419
1.494,420
1.495,421
1.497,424
1.497,428
1.497,432
1.497,438
1.497,445
1.497,454
1.499,465
1.499,477
1.5,492
1.5,508
1.5,523
1.5,539
1.502,553
1.502,567
1.502,581
1.502,592
1.502,601
1.503,609
1.503,615
1.505,617
1.505,617
1.505,615
1.506,609
1.506,602
1.506,592
1.508,580
1.508,565
1.508,549
1.508,532
1.508,515
1.508,499
1.508,484
1.51,470
1.51,457
1.511,445
1.511,434
1.511,424
1.511,415
1.513,407
1.513,401
1.513,395
1.513,391
1.514,387
1.514,385
1.515,384
1.516,384
1.516,386
1.516,388
1.516,391
1.516,396
1.516,401
1.518,406
1.519,414
1.519,424
1.519,436
1.519,450
1.519,465
1.52,481
1.521,497
1.521,512
1.521,526
1.521,539
1.521,550
1.521,560
1.523,568
1.524,574
1.524,577
1.524,578
1.524,577
1.524,574
1.526,567
1.526,558
1.526,547
1.526,533
1.526,518
1.527,501
1.529,485
1.529,469
1.529,455
1.529,442
1.529,430
1.529,418
1.529,408
1.531,399
1.532,391
1.532,384
1.532,378
1.532,374
1.532,370
1.534,367
1.534,365
1.534,364
1.535,365
1.535,366
1.535,369
1.535,374
1.537,379
1.537,384
1.537,391
1.537,399
1.537,409
1.537,421
1.54,435
1.54,449
1.54,465
1.54,481
1.54,496
1.54,510
1.542,523
1.542,535
1.542,544
1.542,552
1.543,558
1.543,561
1.543,561
1.545,559
1.545,555
1.545,548
1.545,539
1.545,528
1.545,514
1.548,499
1.548,483
1.548,467
1.548,451
1.548,437
1.548,424
1.548,411
1.551,400
1.551,389
1.551,379
1.551,371
1.551,363
1.551,357
1.553,352
1.553,348
1.553,344
1.553,341
1.553,340
1.553,340
1.556,342
1.556,344
1.556,348
1.556,353
1.556,359
1.556,365
1.557,372
1.559,381
1.559,393
1.559,406
1.559,420
1.559,435
1.559,450
1.562,464
1.562,478
1.562,491
1.562,502
1.562,512
1.562,519
1.562,524
1.564,527
1.564,528
1.564,527
1.564,523
1.564,516
1.565,507
1.567,495
1.567,482
1.567,467
1.567,450
1.567,434
1.567,420
1.569,407
1.569,394
1.57,383
1.57,372
1.57,362
1.57,353
1.57,345
1.573,338
1.573,333
1.573,328
1.574,325
1.574,322
1.574,320
1.575,320
1.575,320
1.575,322
1.575,325
1.575,328
1.575,333
1.575,338
1.577,344
1.578,352
1.578,362
1.578,374
1.578,387
1.578,402
1.581,417
1.581,432
1.581,446
1.581,460
1.581,474
1.581,485
1.584,496
1.584,504
1.584,511
1.584,515
1.584,517
1.584,516
1.584,513
1.586,507
1.586,499
1.586,489
1.586,478
1.586,464
1.586,449
1.588,435
1.588,421
1.589,409
1.589,397
1.589,385
1.589,376
1.589,366
1.591,358
1.591,351
1.591,344
1.592,339
1.592,335
1.592,331
1.594,330
1.594,329
1.594,329
1.594,329
1.594,332
1.594,334
1.596,338
1.597,342
1.597,347
1.597,354
1.597,362
1.597,372
1.597,384
1.6,398
1.6,412
1.6,426
1.6,441
1.6,456
1.6,470
1.602,482
1.602,493
1.602,503
1.602,512
1.602,519
1.603,523
1.603,524
1.605,523
1.605,520
1.605,514
1.605,505
1.605,495
1.605,482
1.608,467
1.608,453
1.608,438
1.608,424
1.608,412
1.608,399
1.611,389
1.611,379
1.611,370
1.611,362
1.611,354
1.611,349
1.611,343
1.614,339
1.614,335
1.614,333
1.614,332
1.614,332
1.614,334
1.616,336
1.616,340
1.616,344
1.616,348
1.616,354
1.616,361
1.616,368
1.619,378
1.619,390
1.619,405
1.619,420
1.619,436
1.619,451
1.621,466
1.621,482
1.623,496
1.623,509
1.623,520
1.623,529
1.625,537
1.625,541
1.625,543
1.625,543
1.625,541
1.625,536
1.625,529
1.627,520
1.628,508
1.628,495
1.628,481
1.628,466
1.628,453
1.63,441
1.63,429
1.63,419
1.63,408
1.631,399
1.631,392
1.631,385
1.633,379
1.633,374
1.633,370
1.633,367
1.633,365
1.633,364
1.635,364
1.635,366
1.635,368
1.635,371
1.635,376
1.635,382
1.638,388
1.638,395
1.638,403
1.639,413
1.639,425
1.639,439
1.639,455
1.641,472
1.641,488
1.641,504
1.641,519
1.642,534
1.642,547
1.643,558
1.644,567
1.644,574
1.644,579
1.644,582
1.644,582
1.644,581
1.646,577
1.646,569
1.647,559
1.647,548
1.647,535
1.647,520
1.649,505
1.649,492
1.649,479
1.649,468
1.649,456
1.65,446
1.652,437
1.652,429
1.652,422
1.652,416
1.652,410
1.652,405
1.652,401
1.653,399
1.653,397
1.655,397
1.655,398
1.655,400
1.655,403
1.657,407
1.657,411
1.657,416
1.658,423
1.658,431
1.658,441
1.658,453
1.66,467
1.66,482
1.66,498
1.66,514
1.66,528
1.661,543
1.663,557
1.663,569
1.663,580
1.663,589
1.663,596
1.663,600
1.665,602
1.665,602
1.665,599
1.666,593
1.666,586
1.666,576
1.666,564
1.668,550
1.668,535
1.668,519
1.668,504
1.668,490
1.668,478
1.671,466
1.671,455
1.671,445
1.671,435
1.671,427
1.671,420
1.671,413
1.674,408
1.674,404
1.674,402
1.674,400
1.674,400
1.674,401
1.676,403
1.676,406
1.676,409
1.676,414
1.676,419
1.677,425
1.679,433
1.679,442
1.679,454
1.679,467
1.679,482
1.679,498
1.679,513
1.682,528
1.682,543
1.682,557
1.682,569
1.682,580
1.682,590
1.684,597
1.684,603
1.684,605
1.684,605
1.685,604
1.685,599
1.685,592
1.687,583
1.687,571
1.687,558
1.687,543
1.688,528
1.688,514
1.69,501
1.69,490
1.69,479
1.69,469
1.69,460
1.69,452
1.692,445
1.693,438
1.693,433
1.693,429
1.693,426
1.693,424
1.693,423
1.695,424
1.695,425
1.695,428
1.696,431
1.696,435
1.696,441
1.698,446
1.698,453
1.698,460
1.698,470
1.698,482
1.699,496
1.699,512
1.701,529
1.701,546
1.701,563
1.701,579
1.701,595
1.701,609
1.703,621
1.703,631
1.704,639
1.704,645
1.704,649
1.704,650
1.706,648
1.706,644
1.706,637
1.706,628
1.706,617
1.707,604
1.707,589
1.709,574
1.709,561
1.709,548
1.709,535
1.709,524
1.709,514
1.712,505
1.712,496
1.712,489
1.712,482
1.712,477
1.712,472
1.712,468
1.714,467
1.714,466
1.714,466
1.715,467
1.715,469
1.715,473
1.717,477
1.717,482
1.717,488
1.717,494
1.717,503
1.717,513
1.72,526
1.72,540
1.72,555
1.72,571
1.72,588
1.72,604
1.72,621
1.722,636
1.723,650
1.723,663
1.723,673
1.723,682
1.723,688
1.725,692
1.725,693
1.725,692
1.726,687
1.726,681
1.726,672
1.726,661
1.728,648
1.728,633
1.728,618
1.728,603
1.728,590
1.728,577
1.731,565
1.731,554
1.731,544
1.731,535
1.731,527
1.731,520
1.733,514
1.733,509
1.733,506
1.733,503
1.734,502
1.734,502
1.734,504
1.736,506
1.736,510
1.736,514
1.736,520
1.736,526
1.736,533
1.738,541
1.738,552
1.739,565
1.739,579
1.739,595
1.739,612
1.739,629
1.741,646
1.741,663
1.741,679
1.741,694
1.741,707
1.741,719
1.743,728
1.744,734
1.744,738
1.744,739
1.744,737
1.744,733
1.747,728
1.747,719
1.747,708
1.747,695
1.747,680
1.747,664
1.747,649
1.749,635
1.75,621
1.75,609
1.75,597
1.75,586
1.75,575
1.752,566
1.752,558
1.752,552
1.753,546
1.753,543
1.753,540
1.753,539
1.755,540
1.755,541
1.755,544
1.755,548
1.755,553
1.755,559
1.758,565
1.758,573
1.758,582
1.758,593
1.758,607
1.758,623
1.76,641
1.76,659
1.76,678
1.761,697
1.761,715
1.761,733
1.761,748
1.763,762
1.763,772
1.763,781
1.763,787
1.763,790
1.763,791
1.766,788
1.766,783
1.766,774
1.766,763
1.766,750
1.766,734
1.766,716
1.769,697
1.769,679
1.769,662
1.769,646
1.769,632
1.769,618
1.771,606
1.771,594
1.771,584
1.771,574
1.771,566
1.771,560
1.773,554
1.774,550
1.774,546
1.774,545
1.774,545
1.774,547
1.774,550
1.776,554
1.777,558
1.777,564
1.777,571
1.777,580
1.777,591
1.779,604
1.779,619
1.779,636
1.779,653
1.779,671
1.779,689
1.779,706
1.782,723
1.782,737
1.782,750
1.782,761
1.782,770
1.782,776
1.784,780
1.784,780
1.785,778
1.785,773
1.785,764
1.785,753
1.787,740
1.787,724
1.787,707
1.787,688
1.787,670
1.787,653
1.787,636
1.79,621
1.79,607
1.79,594
1.79,583
1.79,573
1.79,563
1.792,555
1.793,548
1.793,543
1.793,539
1.793,536
1.793,535
1.793,534
1.795,535
1.795,538
1.795,542
1.796,546
1.796,552
1.796,558
1.798,566
1.798,576
1.798,588
1.798,604
1.798,620
1.798,638
1.801,655
1.801,673
1.801,690
1.801,706
1.801,721
1.801,735
1.801,746
1.803,754
1.803,760
1.804,763
1.804,763
1.804,760
1.804,754
1.806,746
1.806,735
1.806,721
1.806,706
1.807,688
1.807,669
1.807,650
1.809,633
1.809,617
1.809,601
1.809,587
1.809,573
1.809,560
1.811,549
1.812,539
1.812,530
1.812,522
1.812,516
1.812,511
1.814,508
1.814,506
1.814,505
1.815,506
1.815,508
1.815,511
1.815,516
1.817,521
1.817,527
1.817,535
1.817,545
1.817,558
1.817,572
1.82,589
1.82,606
1.82,623
1.82,640
1.82,656
1.82,673
1.82,687
1.822,700
1.823,711
1.823,720
1.823,726
1.823,728
1.823,727
1.825,724
1.825,718
1.825,709
1.825,698
1.826,685
1.826,669
1.828,651
1.828,632
1.828,613
1.828,595
1.828,578
1.828,562
1.828,546
1.831,532
1.831,519
1.831,507
1.831,496
1.831,487
1.831,479
1.833,472
1.833,467
1.834,463
1.834,462
1.834,461
1.834,462
1.834,464
1.836,466
1.836,470
1.836,475
1.836,480
1.836,487
1.836,497
1.839,509
1.839,524
1.84,541
1.84,559
1.84,577
1.84,594
1.842,611
1.842,627
1.842,643
1.842,655
1.842,666
1.842,675
1.843,681
1.845,685
1.845,685
1.845,682
1.845,676
1.845,667
1.845,656
1.847,643
1.848,627
1.848,609
1.848,591
1.848,572
1.848,554
1.848,538
1.85,522
1.85,507
1.851,493
1.851,481
1.851,469
1.851,459
1.853,450
1.853,442
1.853,436
1.853,432
1.853,429
1.853,426
1.856,426
1.856,427
1.856,429
1.856,432
1.856,437
1.856,443
1.856,450
1.858,457
1.858,467
1.858,480
1.858,494
1.859,511
1.859,529
1.861,547
1.861,565
1.861,582
1.861,599
1.861,614
1.861,627
1.861,639
1.864,648
1.864,656
1.864,659
1.864,661
1.864,659
1.864,655
1.867,647
1.867,637
1.867,624
1.867,609
1.867,590
1.867,572
1.869,553
1.869,536
1.869,520
1.869,505
1.869,491
1.87,477
1.87,465
1.872,454
1.872,444
1.872,436
1.873,429
1.873,423
1.873,418
1.875,415
1.875,413
1.875,413
1.875,414
1.875,416
1.876,420
1.876,425
1.878,430
1.878,437
1.878,446
1.878,455
1.878,468
1.878,483
1.88,500
1.88,518
1.881,536
1.881,554
1.881,572
1.881,589
1.883,605
1.883,618
1.883,630
1.883,640
1.883,648
1.883,652
1.883,654
1.886,652
1.886,647
1.886,639
1.886,629
1.886,616
1.886,601
1.888,584
1.888,566
1.888,548
1.889,530
1.889,515
1.889,500
1.889,486
1.891,472
1.891,460
1.891,448
1.891,438
1.892,428
1.892,420
1.894,414
1.894,409
1.894,406
1.894,404
1.894,404
1.894,404
1.896,407
1.897,410
1.897,414
1.897,419
1.897,425
1.897,432
1.897,442
1.899,454
1.899,469
1.899,486
1.9,504
1.9,523
1.9,541
1.902,559
1.902,576
1.902,592
1.902,606
1.902,618
1.903,627
1.903,634
1.905,639
1.905,640
1.905,639
1.905,635
1.905,628
1.905,618
1.907,606
1.907,591
1.908,574
1.908,555
1.908,536
1.908,518
1.91,501
1.91,485
1.91,470
1.91,456
1.91,444
1.91,433
1.91,423
1.913,414
1.913,407
1.913,401
1.913,396
1.913,393
1.913,391
1.916,390
1.916,391
1.916,392
1.916,395
1.916,399
1.916,404
1.916,410
1.918,416
1.918,426
1.918,437
1.918,451
1.918,466
1.919,483
1.921,500
1.921,517
1.921,533
1.921,550
1.921,565
1.922,578
1.924,589
1.924,598
1.924,604
1.924,608
1.924,609
1.924,607
1.924,602
1.927,594
1.927,584
1.927,572
1.927,558
1.927,542
1.927,524
1.929,507
1.929,490
1.93,474
1.93,459
1.93,446
1.93,434
1.93,423
1.932,412
1.932,403
1.932,395
1.932,388
1.933,382
1.933,377
1.935,374
1.935,372
1.935,372
1.935,372
1.935,374
1.935,377
1.937,381
1.937,387
1.937,393
1.937,400
1.938,408
1.938,420
1.938,433
1.94,448
1.94,465
1.94,482
1.94,499
1.94,516
1.94,532
1.943,547
1.943,561
1.943,573
1.943,583
1.943,590
1.943,595
1.943,597
1.945,596
1.946,592
1.946,585
1.946,577
1.946,565
1.946,552
1.948,536
1.948,519
1.948,502
1.948,485
1.948,469
1.948,455
1.951,441
1.951,428
1.951,416
1.951,405
1.951,395
1.951,386
1.951,378
1.953,372
1.953,367
1.954,363
1.954,361
1.954,359
1.954,358
1.956,359
1.957,360
1.957,362
1.957,366
1.957,371
1.957,377
1.957,384
1.959,394
1.959,406
1.96,421
1.96,436
1.96,452
1.96,469
1.962,484
1.962,500
1.962,515
1.963,528
1.963,539
1.963,549
1.965,557
1.965,562
1.965,565
1.965,565
1.965,562
1.965,557
1.965,548
1.967,538
1.968,525
1.968,511
1.968,495
1.968,478
1.968,463
1.97,449
1.97,435
1.971,423
1.971,411
1.971,400
1.971,390
1.971,382
1.973,375
1.973,368
1.973,363
1.973,359
1.973,357
1.973,356
1.975,356
1.976,357
1.976,360
1.976,364
1.976,368
1.976,374
1.978,381
1.978,388
1.978,397
1.978,408
1.978,421
1.978,437
1.979,454
1.981,472
1.981,489
1.981,505
1.981,522
1.981,537
1.981,551
1.984,563
1.984,573
1.984,581
1.984,587
1.984,589
1.984,590
1.984,587
1.986,582
1.987,573
1.987,562
1.987,550
1.987,536
1.987,519
1.989,503
1.989,488
1.989,474
1.99,460
1.99,447
1.99,435
1.992,425
1.992,415
1.992,406
1.992,398
1.992,391
1.992,386
1.992,383
1.995,380
1.995,379
1.995,379
1.995,380
1.995,382
1.995,386
1.997,390
1.998,396
1.998,401
1.998,409
1.998,417
1.998,427
1.998,440
2.0,455
2.0,470
2.0,486
2.0,503
2.0,519
2.0,535
2.003,550
2.003,564
2.003,575
2.003,585
2.003,593
2.003,598
2.005,600
2.005,599
2.005,596
2.005,590
2.006,581
2.006,569
2.006,557
2.008,541
2.008,524
2.008,507
2.008,491
2.008,476
2.008,462
2.011,449
2.011,437
2.011,425
2.011,415
2.011,405
2.011,397
2.011,390
2.014,384
2.014,380
2.014,377
2.014,375
2.014,374
2.014,376
2.016,378
2.016,381
2.016,385
2.017,391
2.017,396
2.017,403
2.019,412
2.019,422
2.019,435
2.019,450
2.019,466
2.019,482
2.019,500
2.022,516
2.022,532
2.022,548
2.022,561
2.022,573
2.022,583
2.025,591
2.025,597
2.025,600
2.025,601
2.025,600
2.025,595
2.025,588
2.027,579
2.027,567
2.027,553
2.028,537
2.028,521
2.028,506
2.03,492
2.03,478
2.03,465
2.03,454
2.03,443
2.03,434
2.033,427
2.033,420
2.033,413
2.033,409
2.033,405
2.033,402
2.033,401
2.036,402
2.036,403
2.036,406
2.036,410
2.036,415
2.036,420
2.038,427
2.038,434
2.038,442
2.038,452
2.038,465
2.038,481
2.038,497
2.041,515
2.041,532
2.041,550
2.041,567
2.041,584
2.041,599
2.044,612
2.044,624
2.044,633
2.044,639
2.044,643
2.044,644
2.046,643
2.046,639
2.046,632
2.046,622
2.046,610
2.046,596
2.047,580
2.049,564
2.049,548
2.049,534
2.049,520
2.049,507
2.049,495
2.052,484
2.052,474
2.052,465
2.052,457
2.052,450
2.053,444
2.053,440
2.055,437
2.055,436
2.055,437
2.055,438
2.055,441
2.055,444
2.057,448
2.057,454
2.057,460
2.057,468
2.057,478
2.057,489
2.06,502
2.06,518
2.06,535
2.06,554
2.06,573
2.06,591
2.06,608
2.063,624
2.063,639
2.063,652
2.063,663
2.063,671
2.064,677
2.066,680
2.066,680
2.066,678
2.066,673
2.066,665
2.066,654
2.066,641
2.068,625
2.068,608
2.068,590
2.068,573
2.068,557
2.068,542
2.071,527
2.071,514
2.071,501
2.071,490
2.072,480
2.072,471
2.074,464
2.074,457
2.074,452
2.074,448
2.074,446
2.074,445
2.074,445
2.076,447
2.077,450
2.077,455
2.077,460
2.077,466
2.077,473
2.079,481
2.079,492
2.079,506
2.079,521
2.079,539
2.079,556
2.08,574
2.082,592
2.082,610
2.082,627
2.082,642
2.082,655
2.082,666
2.085,676
2.085,682
2.085,685
2.085,686
2.086,683
2.086,676
2.087,668
2.088,656
2.088,642
2.088,627
2.088,608
2.088,589
2.088,570
2.09,552
2.09,536
2.09,520
2.09,506
2.09,493
2.091,480
2.092,469
2.092,459
2.092,450
2.092,443
2.092,437
2.092,432
2.092,429
2.095,428
2.095,429
2.095,430
2.095,432
2.095,436
2.095,442
2.098,448
2.098,455
2.098,465
2.098,475
2.098,488
2.098,503
2.101,520
2.101,538
2.101,555
2.101,573
2.101,590
2.101,606
2.101,622
2.104,634
2.104,645
2.104,654
2.104,660
2.104,663
2.104,663
2.106,660
2.106,654
2.106,645
2.106,633
2.106,620
2.106,603
2.106,585
2.109,566
2.109,548
2.109,531
2.109,515
2.109,500
2.109,485
2.112,471
2.112,460
2.112,449
2.112,440
2.112,431
2.112,424
2.114,418
2.114,413
2.114,410
2.114,409
2.114,409
2.114,410
2.114,413
2.117,417
2.117,422
2.117,428
2.117,435
2.117,444
2.117,455
2.12,468
2.12,484
2.12,501
2.12,518
2.12,536
2.12,554
2.122,571
2.123,587
2.123,603
2.123,617
2.124,627
2.124,637
2.124,643
2.125,646
2.125,647
2.125,644
2.125,638
2.125,629
2.125,619
2.128,605
2.128,589
2.128,572
2.128,553
2.128,535
2.128,518
2.128,502
2.131,487
2.131,473
2.131,460
2.131,448
2.131,436
2.131,427
2.134,418
2.134,412
2.134,407
2.134,402
2.134,399
2.134,398
2.135,398
2.136,399
2.136,402
2.136,405
2.136,410
2.136,415
2.136,422
2.139,430
2.139,440
2.139,453
2.139,468
2.14,486
2.14,504
2.142,522
2.142,540
2.142,557
2.142,574
2.142,589
2.142,602
2.142,614
2.145,623
2.145,630
2.145,633
2.145,634
2.145,633
2.145,628
2.147,620
2.147,610
2.147,596
2.147,581
2.147,563
2.147,544
2.148,526
2.15,509
2.15,493
2.15,478
2.15,464
2.15,451
2.15,439
2.153,428
2.153,419
2.153,411
2.153,404
2.153,399
2.153,395
2.155,393
2.155,392
2.155,392
2.155,394
2.155,398
2.156,402
2.156,408
2.158,414
2.158,422
2.158,430
2.158,441
2.158,454
2.158,469
2.161,486
2.161,506
2.161,524
2.161,542
2.161,560
2.161,578
2.161,594
2.163,608
2.163,620
2.163,629
2.164,636
2.164,640
2.164,642
2.166,642
2.166,638
2.166,631
2.166,622
2.166,609
2.167,594
2.168,577
2.169,559
2.169,542
2.169,525
2.169,510
2.169,495
2.17,481
2.171,469
2.171,457
2.171,446
2.171,437
2.171,429
2.171,423
2.174,418
2.174,415
2.174,413
2.174,412
2.174,413
2.174,415
2.174,418
2.177,423
2.177,428
2.177,434
2.177,441
2.177,449
2.177,459
2.18,472
2.18,487
2.18,504
2.18,523
2.18,541
2.18,560
2.182,579
2.182,596
2.182,612
2.182,626
2.182,638
2.182,647
2.182,654
2.185,658
2.185,658
2.185,656
2.185,651
2.185,643
2.185,633
2.187,620
2.187,605
2.187,588
2.187,570
2.188,552
2.188,536
2.188,521
2.191,506
2.191,492
2.191,480
2.191,468
2.191,458
2.191,449
2.194,442
2.194,435
2.194,430
2.194,426
2.194,423
2.194,423
2.196,422
2.196,423
2.196,426
2.196,430
2.196,434
2.196,439
2.196,446
2.199,454
2.199,464
2.199,477
2.199,492
2.199,509
2.199,527
2.201,546
2.201,565
2.202,584
2.202,602
2.202,618
2.202,632
2.203,644
2.204,655
2.204,662
2.204,666
2.204,668
2.204,666
2.204,662
2.206,654
2.206,644
2.206,632
2.206,617
2.206,600
2.207,582
2.21,564
2.21,547
2.21,531
2.21,516
2.21,503
2.21,490
2.21,478
2.213,468
2.213,458
2.213,451
2.213,445
2.213,440
2.213,436
2.215,433
2.215,432
2.215,433
2.215,435
2.215,438
2.215,442
2.215,447
2.218,454
2.218,462
2.218,471
2.218,481
2.218,495
2.218,510
2.221,527
2.221,546
2.221,564
2.221,583
2.221,601
2.221,618
2.223,635
2.223,649
2.223,661
2.223,670
2.223,678
2.223,683
2.223,684
2.226,683
2.226,678
2.226,671
2.226,660
2.226,648
2.226,633
2.229,616
2.229,597
2.229,579
2.229,561
2.229,545
2.229,530
2.229,516
2.232,503
2.232,491
2.232,480
2.232,470
2.232,462
2.232,455
2.234,449
2.234,444
2.234,441
2.234,439
2.235,439
2.235,440
2.237,442
2.237,446
2.238,450
2.238,457
2.238,463
2.238,472
2.238,482
2.24,494
2.24,509
2.24,526
2.24,544
2.24,562
2.24,580
2.242,598
2.242,616
2.242,632
2.242,646
2.242,658
2.242,668
2.242,676
2.245,681
2.245,684
2.245,683
2.245,679
2.245,672
2.245,663
2.247,651
2.247,636
2.247,619
2.247,601
2.248,583
2.248,566
2.251,550
2.251,534
2.251,520
2.251,506
2.251,494
2.251,483
2.251,473
2.253,464
2.253,457
2.253,450
2.253,445
2.253,441
2.254,440
2.255,440
2.256,440
2.256,442
2.256,446
2.256,451
2.256,457
2.256,464
2.259,472
2.259,481
2.259,493
2.259,507
2.259,524
2.259,542
2.261,560
2.261,579
2.261,597
2.261,615
2.261,631
2.261,645
2.264,657
2.264,666
2.264,675
2.264,680
2.264,682
2.265,681
2.265,677
2.267,670
2.267,660
2.267,648
2.267,633
2.267,617
2.267,598
2.27,580
2.27,562
2.27,546
2.27,531
2.27,516
2.27,503
2.27,491
2.272,480
2.272,470
2.272,461
2.272,453
2.272,446
2.272,442
2.275,438
2.275,437
2.275,437
2.275,438
2.275,439
2.275,443
2.278,448
2.278,453
2.278,460
2.278,468
2.278,478
2.278,490
2.278,505
2.28,521
2.28,538
2.28,556
2.28,574
2.28,592
2.281,609
2.283,626
2.283,640
2.283,652
2.283,662
2.283,671
2.283,675
2.283,678
2.285,676
2.285,672
2.285,665
2.286,655
2.286,642
2.286,627
2.288,610
2.288,592
2.288,573
2.288,555
2.288,539
2.288,523
2.291,509
2.291,495
2.291,483
2.291,472
2.291,462
2.291,453
2.291,446
2.293,441
2.293,436
2.294,433
2.294,432
2.294,432
2.294,433
2.296,435
2.296,437
2.296,441
2.296,447
2.296,453
2.297,461
2.297,470
2.299,481
2.299,495
2.299,512
2.299,529
2.299,547
2.299,566
2.302,584
2.302,602
2.302,618
2.302,632
2.302,645
2.302,655
2.304,663
2.304,668
2.304,670
2.305,669
2.305,665
2.305,659
2.305,649
2.308,637
2.308,623
2.308,607
2.308,588
2.309,570
2.309,552
2.311,535
2.311,519
2.311,505
2.311,491
2.311,479
2.311,468
2.311,457
2.313,448
2.313,440
2.313,433
2.313,428
2.313,424
2.313,422
2.316,422
2.316,422
2.316,424
2.316,428
2.316,432
2.316,437
2.319,442
2.319,449
2.319,457
2.319,469
2.319,483
2.319,499
2.32,515
2.321,533
2.321,551
2.321,568
2.321,585
2.321,602
2.322,616
2.324,628
2.324,638
2.324,646
2.324,651
2.324,653
2.324,653
2.325,650
2.326,643
2.326,634
2.326,622
2.327,608
2.327,592
2.327,574
2.33,555
2.33,538
2.33,521
2.33,505
2.33,490
2.33,477
2.332,464
2.332,453
2.332,443
2.332,434
2.332,426
2.332,419
2.332,414
2.335,410
2.335,408
2.335,407
2.335,408
2.335,411
2.335,414
2.338,418
2.338,423
2.338,430
2.338,437
2.338,445
2.338,457
2.338,471
2.34,487
2.34,504
2.34,522
2.34,540
2.34,558
2.341,575
2.342,591
2.343,606
2.343,618
2.343,628
2.343,636
2.343,641
2.346,644
2.346,643
2.346,640
2.346,633
2.346,623
2.346,611
2.346,597
2.348,580
2.348,561
2.348,543
2.348,525
2.348,508
2.348,492
2.35,477
2.351,463
2.351,450
2.351,439
2.351,429
2.351,420
2.351,412
2.353,406
2.354,401
2.354,397
2.354,395
2.354,394
2.354,395
2.356,398
2.356,402
2.356,406
2.356,412
2.356,418
2.356,426
2.359,435
2.359,445
2.359,458
2.359,473
2.359,490
2.359,507
2.359,526
2.361,545
2.362,562
2.362,580
2.362,595
2.362,608
2.362,619
2.365,629
2.365,635
2.365,638
2.365,637
2.365,634
2.365,628
2.365,619
2.368,608
2.368,594
2.368,578
2.368,560
2.368,542
2.368,524
2.37,507
2.37,491
2.37,476
2.37,462
2.37,449
2.371,438
2.373,427
2.373,417
2.373,409
2.373,402
2.373,397
2.373,394
2.373,392
2.376,391
2.376,391
2.376,394
2.376,397
2.376,401
2.376,406
2.379,412
2.379,418
2.379,426
2.379,437
2.379,450
2.379,464
2.379,481
2.381,498
2.381,515
2.381,533
2.381,550
2.381,566
2.381,581
2.384,592
2.384,602
2.384,610
2.384,615
2.384,618
2.384,617
2.387,614
2.387,607
2.387,597
2.387,585
2.387,572
2.388,555
2.388,537
2.389,518
2.389,500
2.389,483
2.389,468
2.389,453
2.389,439
2.392,425
2.392,412
2.392,400
2.392,389
2.392,381
2.392,374
2.392,368
2.395,365
2.395,362
2.395,361
2.395,361
2.395,362
2.395,365
2.398,369
2.398,374
2.398,380
2.398,387
2.398,396
2.398,407
2.4,420
2.4,436
2.4,452
2.4,470
2.4,488
2.4,505
2.4,523
2.403,539
2.403,553
2.403,566
2.403,577
2.403,585
2.403,591
2.406,593
2.406,593
2.406,590
2.406,583
2.406,574
2.406,562
2.407,547
2.408,532
2.408,514
2.408,496
2.408,478
2.408,462
2.408,446
2.411,432
2.411,418
2.411,405
2.411,393
2.411,382
2.411,373
2.414,365
2.414,358
2.414,353
2.414,349
2.414,346
2.414,344
2.414,344
2.417,345
2.417,348
2.417,352
2.417,357
2.417,363
2.418,370
2.419,379
2.419,390
2.42,403
2.42,418
2.42,435
2.42,452
2.42,471
2.422,488
2.422,506
2.422,523
2.422,538
2.422,551
2.422,561
2.425,569
2.425,575
2.425,577
2.425,576
2.425,573
2.426,566
2.428,557
2.428,545
2.428,531
2.428,515
2.428,497
2.428,478
2.429,459
2.43,441
2.43,425
2.43,409
2.43,395
2.43,382
2.43,369
2.433,359
2.433,349
2.433,340
2.433,333
2.433,328
2.433,323
2.433,319
2.436,317
2.436,317
2.436,317
2.436,319
2.436,322
2.436,326
2.438,331
2.439,336
2.439,342
2.439,351
2.439,362
2.439,375
2.441,391
2.441,407
2.441,424
2.441,440
2.441,456
2.441,470
2.441,485
2.444,496
2.444,505
2.444,512
2.444,517
2.444,518
2.445,518
2.446,514
2.447,507
2.447,499
2.447,489
2.447,477
2.447,462
2.447,446
2.449,429
2.449,412
2.449,396
2.449,382
2.45,368
2.45,355
2.452,343
2.452,332
2.452,322
2.452,314
2.452,306
2.452,300
2.454,295
2.454,291
2.454,289
2.454,288
2.454,288
2.455,290
2.455,293
2.457,297
2.457,302
2.457,307
2.457,313
2.457,320
2.457,329
2.46,341
2.46,355
2.46,370
2.46,386
2.46,402
2.46,419
2.46,435
2.462,450
2.462,464
2.463,476
2.463,485
2.463,494
2.463,499
2.465,502
2.465,503
2.465,501
2.465,496
2.466,489
2.466,479
2.468,468
2.468,454
2.468,438
2.469,421
2.469,405
2.469,391
2.469,376
2.471,363
2.471,350
2.471,339
2.471,328
2.471,319
2.471,311
2.473,305
2.474,299
2.474,294
2.474,290
2.474,287
2.475,286
2.475,285
2.477,286
2.477,288
2.477,291
2.477,295
2.477,300
2.477,306
2.479,312
2.479,320
2.479,332
2.479,345
2.479,360
2.479,375
2.482,391
2.482,407
2.482,422
2.482,438
2.482,451
2.482,464
2.482,476
2.485,485
2.485,491
2.485,495
2.485,496
2.485,494
2.485,490
2.487,484
2.487,475
2.487,465
2.488,452
2.488,438
2.488,423
2.488,408
2.49,395
2.49,382
2.49,370
2.49,360
2.49,350
2.49,341
2.493,333
2.493,325
2.493,319
2.493,314
2.493,310
2.493,307
2.496,305
2.496,305
2.496,306
2.496,308
2.496,312
2.496,316
2.496,321
2.498,327
2.498,334
2.498,341
2.498,351
2.498,363
2.499,377
2.501,393
2.501,409
2.501,426
2.501,443
2.501,460
2.501,476
2.501,490
2.504,503
2.504,513
2.504,522
2.505,529
2.505,533
2.505,534
2.506,534
2.506,531
2.506,525
2.506,517
2.506,506
2.506,494
2.509,479
2.509,464
2.509,449
2.509,435
2.509,422
2.509,409
2.509,397
2.512,386
2.512,376
2.512,368
2.512,359
2.512,353
2.512,346
2.515,342
2.515,338
2.515,335
2.515,334
2.515,333
2.515,334
2.516,336
2.517,339
2.517,343
2.517,348
2.517,353
2.517,360
2.517,369
2.52,379
2.52,392
2.52,406
2.52,421
2.52,437
2.521,453
2.523,469
2.523,483
2.523,498
2.523,510
2.523,520
2.523,529
2.524,536
2.525,539
2.525,541
2.525,539
2.525,536
2.525,529
2.525,522
2.528,511
2.528,499
2.528,484
2.528,469
2.528,454
2.528,440
2.528,427
2.53,415
2.531,404
2.531,393
2.531,384
2.531,376
2.531,369
2.533,363
2.533,358
2.533,354
2.533,351
2.534,349
2.534,348
2.536,349
2.536,351
2.536,354
2.536,357
2.536,361
2.537,365
2.537,371
2.539,380
2.539,390
2.539,402
2.539,416
2.539,431
2.539,448
2.541,465
2.542,482
2.542,499
2.542,515
2.542,530
2.542,544
2.542,557
2.544,567
2.544,575
2.544,580
2.544,583
2.545,583
2.545,581
2.547,576
2.547,568
2.547,559
2.547,547
2.547,534
2.547,519
2.55,504
2.55,490
2.55,477
2.55,465
2.55,454
2.55,444
2.55,435
2.553,427
2.553,420
2.553,414
2.553,409
2.553,406
2.553,403
2.555,401
2.555,401
2.555,402
2.555,404
2.555,407
2.555,412
2.556,417
2.558,422
2.558,429
2.558,437
2.558,447
2.558,459
2.558,473
2.561,489
2.561,506
2.561,524
2.561,541
2.561,559
2.561,576
2.563,592
2.563,605
2.563,618
2.563,628
2.563,637
2.563,643
2.565,646
2.566,645
2.566,643
2.566,637
2.566,629
2.566,619
2.566,607
2.569,592
2.569,577
2.569,561
2.569,547
2.569,533
2.569,521
2.569,508
2.571,497
2.572,487
2.572,478
2.572,469
2.572,463
2.572,457
2.575,453
2.575,450
2.575,447
2.575,447
2.575,447
2.576,449
2.577,453
2.577,457
2.577,463
2.577,469
2.577,475
2.578,483
2.578,493
2.58,504
2.58,518
2.58,535
2.58,553
2.58,571
2.58,589
2.582,607
2.582,624
2.582,640
2.582,653
2.583,665
2.583,676
2.583,684
2.585,689
2.585,692
2.585,692
2.585,689
2.586,683
2.586,675
2.588,664
2.588,651
2.588,636
2.588,619
2.588,603
2.588,587
2.59,573
2.59,559
2.59,545
2.59,532
2.591,521
2.591,511
2.591,503
2.593,495
2.593,489
2.593,484
2.593,479
2.593,477
2.593,476
2.596,476
2.596,477
2.596,480
2.596,483
2.596,488
2.596,494
2.596,501
2.599,508
2.599,517
2.599,529
2.599,544
2.599,561
2.599,579
2.602,597
2.602,615
2.602,633
2.602,650
2.602,666
2.602,681
2.604,693
2.604,702
2.604,710
2.605,714
2.605,717
2.605,716
2.605,712
2.606,706
2.606,697
2.607,685
2.607,671
2.607,655
2.607,638
2.61,619
2.61,602
2.61,587
2.61,572
2.61,558
2.61,544
2.61,532
2.613,521
2.613,511
2.613,502
2.613,495
2.613,489
2.613,483
2.615,480
2.615,478
2.615,477
2.615,478
2.615,480
2.615,483
2.618,488
2.618,493
2.618,499
2.618,507
2.618,517
2.618,528
2.618,542
2.621,559
2.621,576
2.621,594
2.621,612
2.621,630
2.621,647
2.623,663
2.623,677
2.623,689
2.623,699
2.623,707
2.623,711
2.623,714
2.626,712
2.626,708
2.626,701
2.626,692
2.626,680
2.626,665
2.629,648
2.629,630
2.629,611
2.629,593
2.629,577
2.629,561
2.631,546
2.631,533
2.631,520
2.631,508
2.631,498
2.631,489
2.631,481
2.634,475
2.634,470
2.634,467
2.634,465
2.634,465
2.634,466
2.637,468
2.637,471
2.637,475
2.637,480
2.637,486
2.637,493
2.638,502
2.639,513
2.639,526
2.639,541
2.639,558
2.64,575
2.64,593
2.642,610
2.642,626
2.642,642
2.642,656
2.642,667
2.642,677
2.644,685
2.644,690
2.645,692
2.645,691
2.645,687
2.645,680
2.645,670
2.647,658
2.647,643
2.647,627
2.647,608
2.647,589
2.648,571
2.65,554
2.65,537
2.65,522
2.65,507
2.65,494
2.65,482
2.65,471
2.653,462
2.653,453
2.653,447
2.653,441
2.653,438
2.653,436
2.655,435
2.656,435
2.656,437
2.656,439
2.656,443
2.656,448
2.658,454
2.658,460
2.658,469
2.658,479
2.658,492
2.658,507
2.658,524
2.661,541
2.661,559
2.661,576
2.661,592
2.661,607
2.662,621
2.664,633
2.664,643
2.664,651
2.664,656
2.664,658
2.664,658
2.664,654
2.667,648
2.667,639
2.667,626
2.667,612
2.667,596
2.667,577
2.67,559
2.67,540
2.67,524
2.67,508
2.67,493
2.67,478
2.672,466
2.672,454
2.672,444
2.672,435
2.673,427
2.673,421
2.673,415
2.675,411
2.675,408
2.675,407
2.675,408
2.675,410
2.675,413
2.678,416
2.678,421
2.678,427
2.678,433
2.678,442
2.678,452
2.678,465
2.681,480
2.681,497
2.681,514
2.681,531
2.681,548
2.681,564
2.683,579
2.683,593
2.683,605
2.683,614
2.683,622
2.683,627
2.686,629
2.686,628
2.686,625
2.686,620
2.686,611
2.686,600
2.686,587
2.688,572
2.688,554
2.688,537
2.689,520
2.689,504
2.689,489
2.691,474
2.691,461
2.691,449
2.691,438
2.691,429
2.691,420
2.692,413
2.694,407
2.694,402
2.694,398
2.694,397
2.694,396
2.694,396
2.697,399
2.697,402
2.697,407
2.697,412
2.697,418
2.697,425
2.7,433
2.7,443
2.7,456
2.7,470
2.7,486
2.7,503
2.701,520
2.702,538
2.702,554
2.702,570
2.703,584
2.703,596
2.703,606
2.705,614
2.705,619
2.705,621
2.706,621
2.706,618
2.706,612
2.706,603
2.707,592
2.707,579
2.708,564
2.708,547
2.708,529
2.708,513
2.71,497
2.71,483
2.71,469
2.71,456
2.71,445
2.711,435
2.712,425
2.713,416
2.713,408
2.713,402
2.713,397
2.713,393
2.713,390
2.715,389
2.715,389
2.716,390
2.716,393
2.716,397
2.716,402
2.718,408
2.718,415
2.718,423
2.718,433
2.718,445
2.718,460
2.718,475
2.721,492
2.721,509
2.722,526
2.722,541
2.722,556
2.722,570
2.724,581
2.724,591
2.724,599
2.724,605
2.724,608
2.724,608
2.727,605
2.727,599
2.727,591
2.727,581
2.727,568
2.727,553
2.727,537
2.729,520
2.729,503
2.729,487
2.729,472
2.729,457
2.729,445
2.732,433
2.732,422
2.732,412
2.732,403
2.732,395
2.732,388
2.732,383
2.735,379
2.735,377
2.735,377
2.735,378
2.735,380
2.735,384
2.738,388
2.738,393
2.738,398
2.738,404
2.738,412
2.738,421
2.74,433
2.74,447
2.74,463
2.74,479
2.74,496
2.74,513
2.74,528
2.743,543
2.743,556
2.743,568
2.743,577
2.743,585
2.743,590
2.746,593
2.746,592
2.746,589
2.746,584
2.746,575
2.746,565
2.746,552
2.748,537
2.749,521
2.749,504
2.749,487
2.749,472
2.749,458
2.751,445
2.751,432
2.751,421
2.751,410
2.751,400
2.751,391
2.754,383
2.754,377
2.754,371
2.754,367
2.754,365
2.754,363
2.754,362
2.757,363
2.757,366
2.757,369
2.757,374
2.757,379
2.757,384
2.759,392
2.759,401
2.759,412
2.759,425
2.759,439
2.759,455
2.759,471
2.762,487
2.762,502
2.762,516
2.762,529
2.762,540
2.762,549
2.765,556
2.765,561
2.765,563
2.765,562
2.765,559
2.765,552
2.768,544
2.768,533
2.768,520
2.768,506
2.768,490
2.768,472
2.768,456
2.77,441
2.77,427
2.77,414
2.771,401
2.771,389
2.771,378
2.773,368
2.773,359
2.773,351
2.773,345
2.773,340
2.773,335
2.774,332
2.776,331
2.776,330
2.776,330
2.776,332
2.776,334
2.776,337
2.778,341
2.778,347
2.779,353
2.779,361
2.779,371
2.779,384
2.781,397
2.781,411
2.781,426
2.781,441
2.781,455
2.781,469
2.781,482
2.784,493
2.784,502
2.784,509
2.784,513
2.784,515
2.784,515
2.787,511
2.787,506
2.787,499
2.787,489
2.787,477
2.787,463
2.787,447
2.789,430
2.789,415
2.789,400
2.789,386
2.789,372
2.789,361
2.792,349
2.792,339
2.792,330
2.792,321
2.792,314
2.792,308
2.794,303
2.794,299
2.794,296
2.794,296
2.795,296
2.795,297
2.795,299
2.798,300
2.798,304
2.798,308
2.798,313
2.798,320
2.798,329
2.8,339
2.8,352
2.8,366
2.8,381
2.8,397
2.8,412
2.8,427
2.803,442
2.803,455
2.803,467
2.803,477
2.803,485
2.803,491
2.805,494
2.805,495
2.805,494
2.805,491
2.805,484
2.806,475
2.808,465
2.808,453
2.808,439
2.808,424
2.808,410
2.808,396
2.808,383
2.811,372
2.811,361
2.811,350
2.811,341
2.811,333
2.811,326
2.814,320
2.814,315
2.814,311
2.814,308
2.814,307
2.814,307
2.814,307
2.817,309
2.817,312
2.817,316
2.817,320
2.817,326
2.817,332
2.819,339
2.819,348
2.819,358
2.82,371
2.82,385
2.82,400
2.822,416
2.822,431
2.822,446
2.823,461
2.823,475
2.823,488
2.823,498
2.825,507
2.825,513
2.825,517
2.825,519
2.825,518
2.825,514
2.827,508
2.827,500
2.827,490
2.827,478
2.828,464
2.828,449
2.828,436
2.83,423
2.83,410
2.83,399
2.83,389
2.83,379
2.83,371
2.833,363
2.833,356
2.833,351
2.833,346
2.833,342
2.833,339
2.835,337
2.835,336
2.836,336
2.836,338
2.836,341
2.836,345
2.836,350
2.838,355
2.838,362
2.839,369
2.839,377
2.839,388
2.839,401
2.841,416
2.841,432
2.841,448
2.841,464
2.841,480
2.841,495
2.841,509
2.844,522
2.844,533
2.844,542
2.844,549
2.844,553
2.844,555
2.846,555
2.846,553
2.846,548
2.846,540
2.846,531
2.846,519
2.849,506
2.849,492
2.849,477
2.849,464
2.849,451
2.849,440
2.849,428
2.852,418
2.852,408
2.852,401
2.852,393
2.852,388
2.852,383
2.855,380
2.855,377
2.855,374
2.856,374
2.856,374
2.856,376
2.856,379
2.857,383
2.857,387
2.857,392
2.857,399
2.857,406
2.858,415
2.86,425
2.86,438
2.86,453
2.86,469
2.86,485
2.86,502
2.862,517
2.862,532
2.862,546
2.862,559
2.862,569
2.862,577
2.863,584
2.866,587
2.866,589
2.866,588
2.866,585
2.866,579
2.866,571
2.868,561
2.868,548
2.868,534
2.868,518
2.868,503
2.868,489
2.868,475
2.871,462
2.871,451
2.871,440
2.872,430
2.872,421
2.872,413
2.873,406
2.873,400
2.874,396
2.874,393
2.874,390
2.874,389
2.876,389
2.876,389
2.876,391
2.876,394
2.876,398
2.876,403
2.876,408
2.879,415
2.879,423
2.879,433
2.879,445
2.879,459
2.879,474
2.882,490
2.882,505
2.882,520
2.882,534
2.882,547
2.882,559
2.882,568
2.885,576
2.885,582
2.885,585
2.885,586
2.885,584
2.885,580
2.887,574
2.887,565
2.887,554
2.888,542
2.888,527
2.888,511
2.889,495
2.89,480
2.89,466
2.89,453
2.89,442
2.89,431
2.89,420
2.893,411
2.893,402
2.893,395
2.893,389
2.893,384
2.893,380
2.895,377
2.895,376
2.895,376
2.895,376
2.895,377
2.895,379
2.896,383
2.898,387
2.898,392
2.898,397
2.898,404
2.898,413
2.898,425
2.901,437
2.901,452
2.901,466
2.901,481
2.901,495
2.901,508
2.904,521
2.904,532
2.904,541
2.904,549
2.905,555
2.905,558
2.905,558
2.906,556
2.906,552
2.906,546
2.906,538
2.906,527
2.907,514
2.909,499
2.909,483
2.909,467
2.909,453
2.909,439
2.909,426
2.91,415
2.912,404
2.912,394
2.912,385
2.912,377
2.913,370
2.913,364
2.915,358
2.915,354
2.915,351
2.915,349
2.915,348
2.916,348
2.917,350
2.917,352
2.917,355
2.917,359
2.917,363
2.917,369
2.918,375
2.92,384
2.92,396
2.92,409
2.92,423
2.92,438
2.92,452
2.922,467
2.922,480
2.922,493
2.922,505
2.922,514
2.923,522
2.923,528
2.925,531
2.925,533
2.925,532
2.925,529
2.925,523
2.925,515
2.928,504
2.928,492
2.928,478
2.928,463
2.928,447
2.928,433
2.931,420
2.931,408
2.931,396
2.931,385
2.931,375
2.931,366
2.931,357
2.934,350
2.934,344
2.934,339
2.934,334
2.934,332
2.934,330
2.936,330
2.936,331
2.936,333
2.936,335
2.936,339
2.936,343
2.937,347
2.938,353
2.939,360
2.939,369
2.939,381
2.939,393
2.939,407
2.941,421
2.941,435
2.942,450
2.942,464
2.942,478
2.942,489
2.944,500
2.944,508
2.944,515
2.944,519
2.944,521
2.944,520
2.944,517
2.947,510
2.947,502
2.947,492
2.947,481
2.947,467
2.947,453
2.949,438
2.95,424
2.95,412
2.95,399
2.95,388
2.95,378
2.95,368
2.952,359
2.952,352
2.953,344
2.953,338
2.953,333
2.953,329
2.955,326
2.955,325
2.955,325
2.955,325
2.955,327
2.955,330
2.958,334
2.958,338
2.958,343
2.958,349
2.958,357
2.958,366
2.958,377
2.961,390
2.961,404
2.961,419
2.961,434
2.961,449
2.961,463
2.963,476
2.963,488
2.963,498
2.963,507
2.963,514
2.963,518
2.964,520
2.966,519
2.966,516
2.966,510
2.966,503
2.966,493
2.966,481
2.969,468
2.969,454
2.969,440
2.969,426
2.97,413
2.97,401
2.971,390
2.971,380
2.971,371
2.972,363
2.972,355
2.972,348
2.972,343
2.974,338
2.974,335
2.974,333
2.974,331
2.974,331
2.974,332
2.977,334
2.977,337
2.977,341
2.977,345
2.977,350
2.977,355
2.977,363
2.98,372
2.98,383
2.98,397
2.98,411
2.98,425
2.98,440
2.982,455
2.982,469
2.982,483
2.982,495
2.983,505
2.983,513
2.985,520
2.985,524
2.985,525
2.985,525
2.985,522
2.986,517
2.986,510
2.988,500
2.988,488
2.988,475
2.988,461
2.988,446
2.988,433
2.991,420
2.991,408
2.991,397
2.991,386
2.991,377
2.991,369
2.991,361
2.993,355
2.993,349
2.993,345
2.993,342
2.993,339
2.993,338
2.996,338
2.996,339
2.996,340
2.996,344
2.996,347
2.996,352
2.999,357
2.999,364
2.999,372
2.999,380
2.999,392
2.999,405
2.999,420
