Timestamp,Sensor Data
0.0,428
0.0,423
0.0,418
0.001,413
0.001,409
0.001,406
0.003,403
0.003,402
0.003,401
0.003,401
0.004,401
0.004,401
0.005,403
0.006,405
0.006,408
0.006,411
0.007,414
0.007,418
0.007,423
0.008,428
0.008,433
0.008,440
0.008,447
0.009,456
0.009,465
0.011,475
0.011,486
0.011,497
0.011,509
0.012,520
0.012,531
0.012,542
0.013,553
0.014,563
0.014,574
0.014,584
0.014,593
0.014,604
0.016,614
0.016,622
0.016,627
0.016,629
0.017,629
0.017,626
0.019,620
0.019,611
0.019,600
0.019,586
0.02,570
0.02,552
0.02,534
0.021,517
0.022,501
0.022,486
0.022,472
0.022,459
0.022,448
0.025,437
0.025,427
0.025,419
0.026,412
0.026,406
0.026,401
0.026,399
0.027,398
0.027,398
0.027,399
0.027,402
0.028,405
0.028,409
0.03,414
0.03,419
0.03,426
0.03,435
0.03,445
0.031,459
0.032,474
0.032,490
0.032,507
0.032,525
0.033,542
0.033,559
0.033,575
0.035,588
0.035,600
0.035,610
0.035,618
0.035,623
0.035,627
0.038,627
0.038,625
0.038,619
0.038,609
0.038,599
0.038,586
0.038,570
0.041,553
0.041,535
0.041,518
0.041,502
0.041,487
0.041,473
0.043,460
0.043,449
0.043,438
0.043,429
0.043,421
0.043,413
0.046,407
0.046,402
0.046,399
0.046,397
0.046,396
0.046,397
0.046,399
0.049,403
0.049,407
0.049,412
0.049,419
0.049,426
0.049,434
0.052,445
0.052,458
0.052,474
0.052,491
0.052,508
0.053,526
0.053,544
0.055,561
0.055,577
0.055,591
0.055,604
0.055,615
0.055,622
0.057,627
0.057,629
0.057,629
0.057,626
0.057,619
0.057,611
0.06,600
0.06,586
0.06,571
0.06,553
0.06,535
0.06,518
0.06,502
0.063,487
0.063,474
0.063,461
0.063,450
0.063,440
0.063,430
0.065,422
0.065,414
0.065,408
0.065,402
0.065,398
0.065,396
0.065,395
0.067,397
0.068,399
0.068,404
0.068,409
0.068,414
0.068,421
0.07,429
0.07,438
0.07,448
0.07,462
0.07,477
0.07,495
0.073,513
0.073,531
0.073,548
0.073,564
0.073,580
0.073,594
0.073,606
0.075,617
0.076,626
0.076,632
0.076,635
0.076,635
0.077,632
0.078,627
0.078,618
0.078,607
0.079,593
0.079,577
0.079,560
0.079,542
0.082,525
0.082,509
0.082,494
0.082,480
0.082,466
0.082,454
0.084,444
0.084,434
0.084,425
0.084,418
0.084,412
0.084,407
0.087,404
0.087,402
0.087,400
0.087,401
0.087,403
0.087,407
0.087,411
0.09,416
0.09,422
0.09,429
0.09,438
0.09,448
0.09,461
0.093,476
0.093,493
0.093,511
0.093,529
0.093,547
0.093,563
0.094,579
0.095,593
0.095,606
0.095,617
0.095,626
0.095,632
0.095,635
0.098,636
0.098,633
0.098,627
0.098,619
0.098,608
0.098,595
0.101,581
0.101,564
0.101,547
0.101,530
0.101,514
0.101,500
0.101,486
0.103,474
0.103,463
0.103,452
0.103,443
0.103,435
0.103,428
0.106,422
0.106,416
0.106,413
0.106,410
0.106,409
0.106,410
0.106,412
0.108,415
0.108,420
0.108,425
0.108,432
0.109,439
0.109,447
0.112,457
0.112,470
0.112,485
0.112,502
0.112,520
0.112,538
0.114,556
0.114,573
0.114,589
0.114,604
0.114,617
0.114,628
0.114,637
0.117,643
0.117,647
0.117,647
0.117,645
0.117,640
0.117,633
0.12,622
0.12,609
0.12,593
0.12,576
0.12,558
0.12,540
0.12,524
0.122,509
0.122,495
0.122,482
0.122,469
0.122,458
0.123,449
0.125,440
0.125,433
0.125,427
0.125,422
0.125,418
0.125,416
0.128,416
0.128,417
0.128,419
0.128,422
0.128,426
0.128,430
0.128,436
0.131,442
0.131,450
0.131,461
0.131,474
0.131,489
0.132,506
0.133,523
0.133,540
0.133,556
0.133,574
0.134,589
0.134,604
0.134,616
0.136,626
0.136,635
0.136,641
0.136,644
0.136,645
0.137,642
0.139,637
0.139,630
0.139,619
0.139,607
0.139,592
0.139,575
0.141,556
0.141,539
0.141,522
0.142,506
0.142,492
0.142,478
0.142,465
0.144,453
0.144,442
0.144,432
0.144,424
0.144,418
0.144,413
0.146,409
0.147,406
0.147,405
0.147,405
0.147,406
0.147,408
0.147,412
0.149,416
0.149,422
0.149,429
0.149,438
0.149,447
0.149,459
0.152,473
0.152,488
0.152,505
0.152,523
0.152,540
0.152,558
0.155,573
0.155,587
0.155,599
0.155,609
0.155,617
0.155,623
0.155,626
0.158,626
0.158,624
0.158,618
0.158,611
0.158,601
0.158,588
0.16,573
0.16,556
0.16,538
0.16,520
0.16,504
0.16,489
0.16,475
0.163,461
0.163,449
0.163,438
0.163,429
0.164,420
0.164,412
0.165,406
0.166,401
0.166,397
0.166,395
0.166,394
0.166,395
0.168,397
0.168,399
0.168,403
0.169,408
0.169,413
0.169,419
0.169,427
0.171,437
0.171,449
0.171,463
0.171,479
0.171,496
0.171,513
0.174,530
0.174,547
0.174,563
0.174,578
0.174,590
0.174,601
0.175,610
0.176,616
0.177,619
0.177,619
0.177,616
0.177,611
0.177,604
0.179,594
0.179,582
0.179,568
0.179,551
0.179,533
0.179,515
0.182,500
0.182,485
0.182,470
0.183,457
0.183,445
0.183,434
0.183,423
0.185,414
0.185,405
0.185,399
0.185,394
0.185,390
0.185,388
0.188,387
0.188,388
0.188,389
0.188,392
0.188,395
0.188,400
0.188,405
0.191,412
0.191,420
0.191,430
0.191,443
0.192,457
0.192,474
0.193,491
0.193,508
0.193,525
0.194,541
0.194,557
0.194,572
0.196,585
0.196,596
0.196,605
0.196,611
0.196,615
0.197,615
0.197,613
0.199,607
0.199,600
0.199,589
0.199,576
0.199,561
0.199,544
0.201,527
0.201,509
0.201,493
0.201,477
0.201,463
0.201,450
0.201,438
0.204,427
0.204,417
0.204,408
0.204,400
0.204,393
0.204,387
0.207,383
0.207,380
0.207,379
0.207,379
0.207,380
0.207,382
0.21,386
0.21,391
0.21,396
0.21,402
0.21,409
0.211,419
0.211,431
0.212,445
0.212,461
0.212,477
0.212,494
0.212,511
0.212,528
0.214,544
0.214,559
0.214,573
0.215,584
0.215,593
0.215,599
0.215,602
0.217,603
0.217,601
0.217,596
0.217,588
0.217,579
0.217,566
0.22,551
0.22,533
0.22,515
0.22,497
0.22,480
0.22,465
0.222,451
0.223,437
0.223,424
0.223,413
0.223,403
0.223,393
0.223,385
0.225,378
0.225,373
0.225,369
0.226,366
0.226,364
0.226,364
0.228,365
0.228,368
0.228,372
0.228,376
0.228,382
0.228,388
0.228,396
0.231,405
0.231,417
0.231,431
0.231,447
0.231,464
0.231,481
0.234,499
0.234,516
0.234,533
0.234,548
0.234,561
0.234,572
0.237,581
0.237,588
0.237,591
0.237,592
0.237,590
0.237,586
0.238,579
0.239,569
0.239,557
0.239,543
0.239,526
0.239,508
0.24,491
0.241,475
0.241,459
0.241,445
0.241,432
0.242,420
0.242,409
0.242,398
0.245,389
0.245,382
0.245,376
0.245,372
0.245,368
0.245,366
0.248,366
0.248,366
0.248,368
0.248,370
0.248,374
0.248,379
0.25,386
0.25,392
0.25,401
0.25,411
0.25,422
0.25,436
0.25,452
0.253,469
0.253,487
0.253,504
0.253,521
0.253,537
0.253,552
0.256,566
0.256,577
0.256,586
0.256,594
0.256,598
0.257,599
0.257,598
0.258,593
0.258,586
0.258,576
0.258,564
0.259,551
0.259,535
0.261,518
0.261,501
0.261,485
0.261,469
0.261,455
0.261,442
0.264,429
0.264,418
0.264,408
0.264,400
0.264,392
0.264,386
0.264,381
0.267,377
0.267,375
0.267,374
0.267,374
0.267,376
0.267,378
0.269,382
0.269,387
0.269,393
0.27,400
0.27,408
0.27,417
0.27,429
0.272,443
0.272,459
0.272,476
0.272,494
0.273,511
0.273,528
0.275,545
0.275,560
0.275,573
0.275,584
0.275,594
0.275,602
0.278,606
0.278,607
0.278,606
0.278,602
0.278,595
0.278,585
0.279,574
0.28,559
0.28,543
0.28,526
0.28,509
0.28,493
0.28,477
0.283,463
0.283,449
0.283,437
0.283,426
0.283,416
0.283,407
0.283,399
0.285,392
0.285,387
0.285,383
0.286,380
0.286,379
0.286,379
0.288,380
0.288,383
0.288,386
0.288,391
0.288,396
0.288,402
0.291,410
0.291,419
0.291,430
0.291,444
0.291,459
0.291,476
0.291,494
0.294,511
0.294,528
0.294,544
0.294,560
0.294,573
0.294,585
0.296,595
0.296,602
0.296,607
0.296,609
0.297,608
0.297,605
0.297,598
0.299,588
0.299,577
0.299,564
0.299,548
0.299,531
0.299,514
0.302,497
0.302,481
0.302,467
0.302,454
0.302,441
0.302,430
0.305,420
0.305,411
0.305,403
0.305,396
0.305,391
0.305,386
0.305,383
0.307,380
0.307,380
0.307,381
0.307,383
0.308,387
0.308,393
0.31,399
0.31,405
0.31,413
0.31,423
0.31,435
0.31,449
0.311,465
0.312,482
0.312,499
0.312,517
0.312,534
0.312,550
0.314,566
0.316,580
0.316,591
0.316,601
0.317,609
0.317,614
0.317,617
0.318,616
0.318,612
0.318,606
0.318,597
0.318,586
0.319,572
0.319,556
0.32,538
0.321,521
0.321,504
0.321,489
0.321,474
0.321,461
0.323,448
0.323,436
0.323,426
0.323,417
0.324,409
0.324,403
0.324,398
0.326,393
0.326,390
0.326,388
0.326,388
0.326,389
0.326,391
0.329,394
0.329,398
0.329,403
0.329,409
0.329,416
0.329,426
0.331,438
0.331,452
0.331,467
0.331,485
0.331,502
0.332,519
0.332,536
0.335,553
0.335,568
0.335,581
0.335,593
0.335,602
0.335,610
0.337,614
0.337,617
0.337,616
0.337,613
0.337,606
0.337,598
0.337,587
0.34,573
0.34,558
0.34,541
0.34,523
0.34,507
0.34,491
0.342,477
0.343,463
0.343,450
0.343,438
0.343,427
0.343,418
0.345,410
0.345,403
0.345,397
0.345,393
0.345,389
0.345,388
0.346,388
0.348,389
0.348,391
0.348,395
0.348,400
0.348,406
0.348,413
0.35,420
0.35,429
0.35,440
0.35,454
0.351,468
0.351,484
0.351,502
0.353,519
0.353,536
0.353,553
0.353,569
0.353,583
0.353,595
0.356,604
0.356,612
0.356,617
0.356,619
0.356,618
0.356,614
0.359,608
0.359,598
0.359,586
0.359,573
0.359,557
0.359,540
0.359,523
0.361,506
0.361,491
0.361,476
0.361,463
0.362,450
0.362,439
0.364,428
0.364,418
0.364,410
0.364,403
0.364,397
0.364,392
0.364,389
0.367,387
0.367,387
0.367,388
0.367,391
0.367,393
0.367,398
0.37,403
0.37,408
0.37,415
0.37,424
0.37,435
0.37,449
0.373,464
0.373,481
0.373,499
0.373,516
0.373,533
0.373,550
0.373,565
0.375,579
0.375,591
0.375,600
0.375,608
0.375,613
0.375,616
0.378,615
0.378,612
0.378,605
0.378,595
0.378,584
0.378,570
0.378,554
0.381,537
0.381,519
0.381,502
0.381,487
0.381,473
0.381,460
0.384,448
0.384,436
0.384,426
0.384,417
0.384,408
0.384,401
0.387,395
0.387,391
0.387,388
0.387,386
0.387,387
0.387,388
0.387,391
0.389,394
0.389,399
0.389,404
0.389,409
0.389,416
0.389,424
0.392,435
0.392,449
0.392,465
0.392,482
0.392,499
0.392,516
0.392,533
0.395,549
0.395,564
0.395,577
0.395,589
0.395,599
0.395,607
0.397,613
0.397,615
0.397,615
0.397,613
0.397,607
0.397,599
0.4,588
0.4,574
0.4,559
0.4,542
0.4,524
0.4,508
0.4,492
0.403,477
0.403,463
0.403,449
0.403,437
0.403,426
0.403,416
0.405,408
0.405,400
0.405,394
0.405,389
0.405,386
0.405,383
0.405,382
0.408,382
0.409,384
0.409,387
0.409,391
0.409,396
0.409,402
0.41,409
0.411,417
0.411,428
0.411,441
0.411,455
0.412,471
0.413,489
0.413,506
0.413,522
0.413,539
0.414,555
0.414,569
0.414,581
0.416,591
0.416,600
0.416,606
0.417,608
0.417,608
0.417,606
0.419,600
0.419,591
0.419,580
0.419,567
0.419,552
0.42,534
0.42,516
0.422,499
0.422,484
0.422,468
0.422,454
0.422,442
0.422,430
0.424,419
0.425,410
0.425,401
0.425,395
0.425,389
0.425,384
0.427,381
0.427,378
0.427,377
0.427,378
0.427,380
0.427,383
0.427,388
0.429,393
0.43,399
0.43,406
0.43,414
0.43,425
0.43,438
0.432,453
0.432,470
0.432,488
0.433,506
0.433,524
0.433,541
0.433,557
0.435,572
0.435,585
0.435,596
0.435,604
0.435,610
0.435,614
0.438,613
0.438,610
0.438,604
0.438,596
0.438,585
0.438,572
0.44,557
0.441,540
0.441,523
0.441,506
0.441,491
0.441,477
0.442,463
0.443,450
0.443,439
0.443,428
0.443,418
0.443,410
0.443,403
0.446,397
0.446,392
0.446,389
0.446,387
0.446,386
0.446,387
0.446,389
0.449,393
0.449,397
0.449,403
0.449,409
0.449,416
0.449,424
0.452,435
0.452,448
0.452,462
0.452,479
0.452,496
0.452,514
0.454,531
0.454,548
0.454,564
0.454,579
0.454,592
0.454,602
0.455,610
0.457,616
0.457,619
0.457,619
0.457,617
0.457,612
0.457,604
0.46,593
0.46,580
0.46,565
0.46,548
0.46,531
0.46,514
0.46,498
0.463,483
0.463,470
0.463,457
0.463,446
0.463,435
0.463,426
0.465,418
0.465,411
0.465,406
0.465,402
0.465,398
0.465,396
0.468,396
0.468,397
0.468,400
0.468,402
0.468,406
0.468,412
0.468,418
0.471,425
0.471,434
0.471,444
0.471,456
0.471,470
0.471,487
0.474,504
0.474,521
0.474,539
0.474,556
0.474,571
0.475,585
0.475,598
0.476,608
0.476,616
0.476,622
0.476,625
0.476,626
0.476,624
0.479,618
0.479,610
0.479,600
0.479,587
0.479,573
0.479,555
0.482,538
0.482,521
0.482,504
0.482,489
0.482,475
0.482,461
0.482,450
0.484,439
0.484,429
0.484,419
0.484,412
0.484,405
0.484,401
0.487,398
0.487,396
0.487,394
0.487,394
0.488,396
0.488,400
0.488,404
0.49,409
0.49,415
0.49,421
0.49,430
0.49,440
0.491,453
0.492,467
0.492,484
0.492,500
0.492,517
0.493,534
0.493,551
0.495,566
0.495,580
0.495,592
0.495,602
0.495,610
0.495,616
0.495,619
0.498,620
0.498,617
0.498,612
0.498,604
0.498,593
0.498,580
0.5,565
0.5,549
0.501,531
0.501,513
0.501,498
0.501,482
0.501,468
0.503,455
0.504,444
0.504,433
0.504,423
0.504,414
0.504,407
0.506,400
0.506,395
0.506,391
0.506,388
0.506,387
0.507,387
0.508,388
0.509,390
0.509,393
0.509,398
0.509,403
0.509,408
0.509,415
0.511,424
0.511,435
0.511,448
0.511,463
0.512,478
0.512,494
0.514,510
0.514,525
0.514,540
0.514,554
0.514,565
0.514,575
0.514,583
0.517,589
0.517,591
0.517,591
0.517,589
0.517,584
0.517,575
0.52,565
0.52,553
0.52,540
0.52,524
0.52,507
0.52,490
0.523,475
0.523,461
0.523,447
0.523,435
0.523,423
0.523,413
0.523,404
0.525,395
0.525,388
0.525,383
0.525,378
0.525,374
0.525,372
0.528,371
0.528,371
0.528,372
0.528,374
0.528,377
0.528,382
0.528,387
0.531,393
0.531,400
0.531,409
0.531,420
0.531,433
0.531,448
0.533,464
0.533,480
0.533,496
0.533,512
0.533,527
0.533,541
0.536,554
0.536,563
0.536,571
0.536,577
0.536,581
0.536,582
0.536,581
0.538,576
0.538,570
0.538,561
0.538,549
0.538,536
0.538,521
0.542,505
0.542,490
0.542,475
0.542,462
0.542,449
0.542,438
0.543,427
0.544,417
0.544,408
0.544,400
0.544,393
0.544,387
0.544,382
0.547,379
0.547,376
0.547,375
0.547,376
0.547,377
0.547,380
0.549,384
0.55,389
0.55,395
0.55,401
0.55,409
0.55,418
0.55,430
0.552,444
0.552,459
0.552,475
0.552,492
0.552,509
0.552,525
0.555,541
0.555,555
0.555,568
0.555,578
0.555,588
0.555,594
0.555,598
0.558,599
0.558,598
0.558,594
0.559,587
0.559,578
0.559,567
0.56,554
0.56,539
0.56,523
0.56,507
0.56,493
0.56,479
0.563,467
0.563,455
0.563,444
0.563,434
0.563,425
0.563,417
0.563,411
0.566,405
0.566,401
0.566,399
0.566,397
0.566,397
0.566,397
0.569,399
0.569,403
0.569,407
0.569,412
0.569,417
0.569,424
0.569,431
0.571,439
0.571,450
0.571,464
0.571,479
0.571,495
0.571,511
0.574,528
0.574,544
0.574,560
0.575,574
0.575,587
0.575,597
0.577,606
0.577,612
0.577,616
0.577,618
0.577,617
0.577,613
0.577,607
0.58,598
0.58,587
0.58,574
0.58,559
0.58,544
0.58,528
0.582,513
0.582,499
0.582,486
0.582,474
0.582,463
0.582,453
0.582,444
0.585,436
0.585,430
0.585,425
0.585,421
0.585,418
0.585,416
0.588,416
0.588,417
0.588,419
0.588,421
0.588,425
0.588,429
0.59,435
0.59,441
0.59,448
0.59,456
0.59,467
0.59,481
0.59,496
0.593,512
0.593,528
0.593,545
0.593,561
0.593,577
0.593,591
0.595,604
0.596,614
0.597,623
0.597,630
0.597,634
0.597,635
0.597,634
0.599,630
0.599,624
0.599,615
0.599,604
0.599,590
0.599,575
0.601,558
0.601,541
0.601,526
0.602,511
0.602,498
0.602,486
0.604,475
0.604,465
0.604,456
0.604,448
0.604,441
0.604,436
0.604,431
0.607,428
0.607,426
0.607,425
0.607,426
0.607,427
0.607,430
0.609,433
0.609,438
0.61,444
0.61,450
0.61,457
0.61,466
0.61,476
0.612,489
0.612,504
0.612,519
0.612,536
0.612,551
0.612,566
0.615,580
0.615,594
0.615,606
0.615,617
0.615,626
0.615,633
0.618,638
0.618,638
0.618,638
0.618,634
0.618,628
0.618,619
0.618,608
0.62,595
0.62,580
0.62,563
0.62,546
0.62,530
0.62,515
0.623,502
0.623,489
0.623,478
0.623,467
0.623,459
0.623,450
0.623,443
0.626,437
0.626,432
0.626,428
0.627,425
0.627,424
0.627,423
0.629,424
0.629,426
0.629,429
0.629,433
0.629,438
0.629,443
0.631,450
0.631,458
0.631,469
0.631,481
0.631,496
0.631,511
0.631,526
0.634,542
0.634,557
0.634,571
0.634,585
0.634,597
0.634,608
0.637,616
0.637,623
0.637,627
0.637,629
0.637,627
0.637,625
0.637,619
0.639,610
0.639,600
0.639,588
0.639,573
0.64,557
0.64,542
0.642,527
0.642,514
0.642,501
0.642,489
0.643,477
0.643,467
0.644,457
0.644,448
0.644,441
0.644,435
0.645,431
0.645,428
0.645,425
0.647,424
0.647,424
0.647,425
0.648,427
0.648,431
0.648,435
0.65,440
0.65,446
0.65,453
0.65,461
0.65,471
0.65,483
0.65,497
0.653,512
0.653,528
0.653,544
0.653,560
0.653,575
0.653,589
0.656,601
0.656,612
0.656,620
0.656,626
0.656,630
0.656,631
0.658,630
0.659,626
0.659,620
0.659,611
0.659,600
0.659,588
0.66,573
0.661,556
0.661,540
0.662,525
0.662,511
0.662,498
0.662,486
0.664,476
0.664,466
0.664,456
0.664,448
0.664,441
0.664,435
0.664,430
0.667,427
0.667,424
0.667,422
0.667,422
0.667,423
0.667,425
0.669,428
0.669,432
0.669,436
0.669,441
0.669,448
0.669,455
0.672,465
0.672,477
0.672,491
0.672,506
0.672,522
0.672,537
0.672,553
0.675,568
0.676,582
0.676,594
0.676,605
0.676,614
0.677,620
0.677,624
0.677,626
0.677,625
0.677,622
0.677,616
0.677,607
0.678,598
0.68,585
0.68,571
0.68,554
0.68,538
0.68,523
0.68,509
0.682,496
0.682,484
0.683,473
0.683,462
0.683,453
0.683,444
0.685,436
0.685,429
0.685,424
0.685,420
0.686,417
0.686,416
0.686,415
0.688,416
0.688,417
0.688,420
0.688,424
0.688,428
0.688,434
0.691,440
0.691,448
0.691,458
0.691,470
0.691,484
0.691,498
0.692,514
0.693,529
0.693,545
0.693,560
0.694,574
0.694,587
0.694,598
0.697,607
0.697,614
0.697,618
0.697,619
0.697,619
0.697,616
0.699,610
0.699,601
0.699,591
0.699,579
0.699,566
0.699,551
0.699,536
0.702,521
0.702,507
0.702,494
0.702,482
0.702,470
0.702,460
0.705,450
0.705,442
0.705,434
0.705,428
0.705,422
0.705,418
0.705,415
0.707,414
0.707,413
0.707,414
0.708,416
0.708,419
0.708,423
0.709,427
0.709,433
0.709,439
0.71,446
0.71,455
0.71,466
0.713,480
0.713,495
0.713,510
0.713,525
0.713,539
0.713,554
0.713,569
0.716,581
0.716,592
0.716,600
0.716,606
0.716,610
0.716,612
0.718,612
0.718,609
0.718,604
0.718,596
0.718,586
0.718,574
0.718,560
0.721,544
0.721,528
0.721,513
0.721,499
0.721,486
0.721,474
0.724,463
0.724,452
0.724,443
0.724,435
0.724,428
0.724,422
0.726,417
0.726,413
0.726,411
0.726,409
0.726,410
0.726,411
0.726,413
0.729,416
0.729,421
0.729,426
0.729,431
0.73,437
0.73,444
0.732,453
0.732,464
0.732,478
0.732,493
0.732,509
0.732,526
0.732,541
0.735,556
0.735,571
0.735,584
0.735,595
0.735,605
0.735,612
0.737,616
0.737,617
0.737,617
0.737,614
0.737,608
0.737,600
0.74,590
0.74,578
0.74,565
0.74,550
0.74,534
0.74,519
0.74,505
0.742,492
0.742,480
0.742,469
0.743,459
0.743,450
0.743,442
0.744,436
0.744,430
0.744,425
0.746,421
0.746,417
0.746,416
0.746,415
0.748,415
0.748,417
0.748,420
0.748,424
0.748,429
0.748,434
0.75,440
0.75,448
0.75,457
0.75,470
0.751,483
0.751,500
0.753,516
0.753,532
0.753,548
0.753,564
0.753,579
0.753,592
0.753,604
0.756,613
0.756,621
0.756,626
0.756,628
0.756,628
0.756,626
0.758,620
0.759,612
0.759,601
0.759,589
0.759,575
0.759,559
0.76,543
0.761,527
0.761,513
0.761,499
0.763,487
0.763,475
0.763,464
0.764,454
0.764,446
0.764,438
0.765,432
0.765,428
0.765,424
0.767,421
0.767,419
0.767,419
0.767,419
0.767,421
0.767,424
0.767,429
0.77,434
0.77,439
0.77,445
0.77,453
0.77,463
0.77,476
0.773,490
0.773,506
0.773,522
0.773,538
0.773,554
0.773,570
0.773,586
0.775,599
0.776,611
0.776,621
0.776,630
0.776,636
0.776,639
0.777,640
0.778,637
0.778,632
0.778,624
0.779,615
0.779,603
0.78,590
0.78,574
0.78,557
0.78,542
0.78,529
0.78,516
0.78,503
0.783,492
0.783,482
0.783,473
0.783,464
0.783,456
0.783,449
0.786,443
0.786,439
0.786,436
0.786,434
0.786,434
0.786,435
0.786,437
0.789,439
0.789,443
0.789,447
0.789,452
0.789,458
0.789,465
0.792,476
0.792,488
0.793,502
0.793,519
0.793,535
0.793,552
0.794,569
0.795,584
0.795,599
0.796,612
0.796,623
0.796,633
0.796,641
0.797,647
0.797,650
0.797,651
0.797,649
0.797,644
0.798,638
0.8,628
0.8,617
0.8,604
0.8,589
0.8,573
0.8,557
0.8,543
0.803,530
0.803,518
0.803,507
0.803,497
0.803,488
0.803,480
0.805,472
0.805,465
0.805,459
0.805,455
0.805,452
0.805,451
0.808,451
0.809,451
0.809,452
0.809,454
0.809,456
0.81,458
0.81,461
0.811,464
0.811,470
0.812,477
0.812,487
0.812,500
0.812,514
0.813,528
0.813,544
0.813,559
0.813,573
0.813,587
0.813,600
0.814,611
0.816,620
0.816,627
0.816,633
0.816,635
0.817,635
0.817,633
0.818,628
0.819,621
0.819,610
0.819,598
0.819,584
0.819,568
0.821,551
0.821,533
0.821,518
0.822,504
0.822,491
0.822,480
0.822,469
0.824,460
0.824,450
0.824,443
0.824,436
0.824,431
0.824,427
0.826,424
0.827,423
0.827,423
0.827,424
0.827,426
0.827,429
0.827,433
0.83,437
0.83,443
0.83,449
0.83,455
0.831,463
0.831,473
0.833,485
0.833,499
0.833,512
0.833,525
0.833,538
0.833,549
0.835,559
0.835,569
0.835,577
0.835,584
0.835,590
0.835,593
0.835,594
0.838,593
0.838,590
0.838,584
0.838,576
0.838,565
0.838,552
0.84,538
0.84,522
0.84,504
0.84,488
0.84,472
0.84,457
0.84,442
0.843,429
0.843,418
0.843,408
0.843,398
0.843,391
0.843,384
0.845,379
0.845,376
0.846,374
0.846,373
0.846,374
0.846,376
0.848,379
0.848,381
0.848,384
0.848,388
0.848,393
0.848,401
0.848,410
0.851,420
0.851,433
0.851,447
0.851,464
0.851,481
0.851,499
0.853,517
0.853,536
0.854,553
0.854,568
0.854,581
0.854,593
0.854,604
0.856,613
0.856,620
0.856,626
0.856,629
0.857,630
0.857,627
0.859,621
0.859,613
0.859,603
0.859,592
0.859,580
0.859,568
0.861,559
0.862,550
0.862,543
0.862,536
0.862,530
0.862,525
0.862,521
0.865,517
0.865,515
0.865,515
0.865,515
0.865,515
0.865,515
0.868,516
0.868,517
0.868,520
0.868,524
0.868,528
0.868,533
0.868,538
0.871,544
0.871,552
0.871,561
0.871,572
0.871,585
0.871,599
0.873,614
0.873,629
0.873,644
0.873,659
0.873,673
0.873,686
0.875,697
0.875,706
0.875,714
0.875,720
0.876,725
0.876,728
0.876,727
0.879,724
0.879,720
0.879,714
0.879,705
0.879,696
0.879,684
0.882,672
0.882,660
0.882,648
0.882,638
0.882,629
0.882,620
0.882,611
0.884,603
0.884,595
0.884,590
0.884,586
0.884,583
0.884,581
0.887,580
0.887,581
0.887,583
0.887,586
0.887,591
0.887,597
0.89,603
0.89,608
0.89,613
0.89,619
0.89,624
0.89,633
0.891,645
0.892,661
0.893,678
0.893,696
0.893,713
0.893,729
0.893,745
0.895,762
0.895,777
0.895,791
0.895,803
0.895,813
0.895,822
0.895,830
0.898,835
0.898,839
0.898,842
0.898,841
0.898,839
0.898,835
0.901,830
0.901,823
0.901,815
0.901,806
0.901,798
0.901,790
0.903,783
0.903,778
0.903,774
0.903,770
0.903,767
0.903,764
0.903,763
0.906,762
0.906,762
0.906,762
0.906,766
0.906,770
0.906,776
0.909,785
0.909,796
0.909,809
0.909,822
0.91,834
0.91,844
0.91,854
0.912,866
0.912,880
0.912,896
0.912,913
0.912,931
0.912,950
0.914,968
0.914,988
0.914,1009
0.914,1017
0.914,1018
0.914,1018
0.917,1018
0.917,1017
0.917,1017
0.917,1017
0.917,1017
0.92,1017
0.92,1017
0.92,1010
0.92,997
0.92,983
0.92,970
0.922,957
0.922,944
0.922,930
0.922,917
0.922,904
0.922,892
0.924,882
0.925,872
0.925,862
0.925,853
0.925,844
0.925,837
0.925,834
0.928,835
0.928,839
0.928,844
0.928,851
0.928,860
0.928,867
0.93,874
0.93,880
0.93,886
0.93,893
0.93,901
0.93,912
0.933,927
0.933,942
0.933,957
0.933,972
0.933,987
0.933,1002
0.933,1017
0.936,1017
0.936,1017
0.936,1017
0.936,1017
0.936,1016
0.939,1010
0.939,999
0.939,987
0.939,972
0.939,956
0.939,936
0.941,915
0.941,892
0.941,871
0.941,849
0.942,830
0.942,812
0.944,796
0.944,779
0.944,761
0.944,743
0.944,728
0.944,715
0.944,705
0.947,697
0.947,692
0.947,687
0.947,684
0.947,682
0.947,682
0.95,683
0.95,686
0.95,690
0.95,695
0.95,701
0.95,709
0.95,720
0.952,733
0.952,748
0.952,765
0.952,783
0.952,799
0.952,814
0.955,829
0.955,842
0.955,853
0.955,861
0.955,867
0.955,870
0.958,868
0.958,863
0.958,858
0.958,850
0.958,840
0.958,827
0.958,811
0.961,793
0.961,773
0.961,752
0.962,731
0.962,711
0.962,691
0.963,675
0.963,659
0.963,643
0.963,627
0.963,613
0.963,601
0.964,591
0.966,582
0.966,575
0.966,569
0.966,564
0.966,560
0.966,556
0.968,553
0.968,551
0.968,551
0.969,552
0.969,554
0.969,557
0.971,561
0.971,567
0.971,577
0.971,590
0.971,607
0.971,624
0.971,642
0.974,660
0.974,677
0.974,693
0.974,708
0.974,720
0.974,730
0.976,740
0.977,747
0.977,753
0.977,758
0.977,759
0.977,757
0.977,752
0.979,744
0.979,735
0.979,725
0.979,713
0.98,698
0.98,683
0.982,670
0.982,657
0.982,642
0.982,627
0.982,612
0.982,600
0.985,590
0.985,582
0.985,576
0.985,573
0.985,572
0.985,571
0.985,569
0.988,568
0.988,567
0.988,567
0.988,569
0.988,574
0.988,582
0.99,590
0.99,599
0.99,610
0.99,623
0.99,638
0.99,656
0.99,677
0.992,700
0.992,726
0.993,752
0.993,778
0.993,802
0.993,824
0.996,841
0.996,856
0.996,868
0.996,878
0.996,885
0.996,889
0.999,890
0.999,888
0.999,882
0.999,873
0.999,861
0.999,847
0.999,831
1.001,817
1.001,802
1.001,790
1.001,779
1.001,768
1.001,758
1.004,749
1.004,741
1.004,735
1.004,730
1.004,726
1.004,724
1.004,723
1.007,720
1.007,717
1.007,715
1.007,713
1.007,714
1.007,716
1.009,719
1.009,723
1.009,729
1.009,738
1.009,748
1.009,760
1.012,776
1.012,794
1.012,816
1.012,840
1.012,866
1.012,892
1.012,917
1.015,942
1.015,965
1.015,985
1.015,1002
1.015,1018
1.015,1017
1.017,1018
1.017,1017
1.017,1017
1.017,1017
1.017,1012
1.02,1002
1.02,991
1.02,979
1.02,966
1.02,952
1.02,937
1.023,922
1.023,906
1.023,892
1.023,880
1.023,868
1.023,856
1.023,846
1.026,837
1.026,831
1.026,827
1.026,824
1.026,825
1.026,827
1.028,829
1.028,831
1.028,836
1.028,844
1.028,853
1.028,865
1.031,880
1.031,897
1.031,917
1.031,940
1.031,966
1.031,994
1.031,1017
1.034,1017
1.034,1017
1.034,1018
1.034,1018
1.034,1017
1.037,1018
1.037,1018
1.037,1018
1.037,1017
1.038,1017
1.039,1017
1.039,1017
1.039,1017
1.039,1017
1.039,1010
1.04,1001
1.042,993
1.042,987
1.042,980
1.042,974
1.042,968
1.043,962
1.044,955
1.044,949
1.045,944
1.045,941
1.045,938
1.045,936
1.048,934
1.048,933
1.048,934
1.048,937
1.048,942
1.048,949
1.048,957
1.05,966
1.05,977
1.05,989
1.05,1002
1.05,1018
1.05,1017
1.053,1017
1.053,1017
1.053,1017
1.053,1017
1.053,1018
1.056,1018
1.056,1018
1.056,1018
1.056,1017
1.056,1017
1.058,1017
1.059,1017
1.059,1017
1.059,1017
1.06,1017
1.06,1017
1.061,1014
1.061,1007
1.061,999
1.061,992
1.062,984
1.062,975
1.064,966
1.064,959
1.064,954
1.064,949
1.065,945
1.065,943
1.067,939
1.067,935
1.067,932
1.067,929
1.067,930
1.067,933
1.069,939
1.069,948
1.069,958
1.069,969
1.069,979
1.069,990
1.069,1001
1.072,1017
1.072,1017
1.072,1017
1.072,1018
1.072,1017
1.075,1017
1.075,1017
1.075,1018
1.075,1017
1.075,1017
1.077,1018
1.077,1017
1.077,1017
1.077,1017
1.077,1017
1.077,1017
1.08,1017
1.08,1017
1.081,1013
1.081,1004
1.081,991
1.083,980
1.083,969
1.084,959
1.084,948
1.084,937
1.084,926
1.085,915
1.086,906
1.086,898
1.086,892
1.086,888
1.086,885
1.086,881
1.088,878
1.088,877
1.088,879
1.088,882
1.088,887
1.088,894
1.091,902
1.091,911
1.091,923
1.091,938
1.092,957
1.092,979
1.092,1002
1.094,1018
1.094,1018
1.094,1017
1.094,1018
1.094,1017
1.096,1017
1.096,1017
1.096,1018
1.096,1017
1.096,1017
1.099,1017
1.099,1017
1.099,1016
1.099,1009
1.099,996
1.099,982
1.102,967
1.102,952
1.102,935
1.102,918
1.102,900
1.102,882
1.105,865
1.105,847
1.105,827
1.105,807
1.105,788
1.105,773
1.105,762
1.107,755
1.107,752
1.107,750
1.107,750
1.107,750
1.107,753
1.11,757
1.11,763
1.11,771
1.11,782
1.11,794
1.11,811
1.11,829
1.112,850
1.112,873
1.112,898
1.112,921
1.112,943
1.113,965
1.116,986
1.116,1003
1.116,1017
1.116,1017
1.116,1017
1.116,1017
1.118,1013
1.118,1003
1.118,989
1.118,973
1.118,953
1.121,930
1.121,902
1.121,874
1.121,848
1.121,824
1.121,801
1.121,779
1.124,759
1.124,742
1.124,726
1.124,709
1.124,693
1.124,680
1.126,668
1.127,659
1.127,652
1.127,651
1.127,651
1.127,652
1.127,653
1.129,655
1.129,657
1.129,662
1.129,668
1.13,675
1.13,681
1.132,691
1.132,704
1.132,720
1.132,737
1.132,754
1.132,772
1.135,789
1.135,806
1.135,824
1.135,841
1.135,856
1.135,869
1.135,879
1.137,885
1.137,886
1.138,884
1.138,877
1.138,867
1.138,853
1.14,837
1.14,817
1.14,794
1.14,768
1.14,741
1.14,715
1.14,690
1.143,667
1.143,645
1.143,623
1.143,603
1.143,584
1.143,566
1.145,549
1.145,535
1.145,523
1.145,511
1.145,503
1.145,496
1.148,494
1.148,492
1.148,493
1.148,495
1.148,499
1.148,508
1.148,519
1.151,531
1.151,543
1.151,557
1.151,572
1.151,589
1.151,609
1.154,630
1.154,652
1.154,674
1.154,693
1.154,712
1.154,730
1.154,745
1.156,758
1.156,769
1.156,777
1.156,779
1.156,779
1.156,774
1.159,766
1.159,755
1.159,740
1.159,721
1.159,699
1.159,675
1.161,649
1.161,624
1.161,600
1.161,578
1.161,556
1.162,536
1.162,519
1.164,503
1.164,489
1.164,477
1.164,465
1.164,457
1.164,450
1.167,443
1.167,439
1.167,434
1.167,431
1.167,428
1.167,427
1.167,427
1.17,429
1.17,433
1.17,439
1.17,447
1.17,459
1.17,474
1.173,493
1.173,513
1.173,536
1.173,560
1.173,585
1.173,608
1.175,630
1.175,648
1.175,664
1.175,679
1.175,693
1.176,704
1.176,709
1.177,711
1.177,709
1.177,703
1.177,692
1.177,677
1.178,659
1.181,637
1.181,612
1.181,586
1.181,561
1.181,538
1.181,516
1.181,495
1.184,474
1.184,456
1.184,438
1.184,422
1.184,409
1.184,398
1.186,390
1.186,382
1.186,375
1.186,369
1.186,367
1.186,367
1.189,369
1.189,373
1.189,380
1.189,389
1.189,400
1.189,409
1.189,421
1.192,436
1.192,454
1.192,476
1.192,501
1.193,527
1.193,552
1.195,575
1.195,597
1.195,619
1.195,638
1.195,654
1.195,668
1.195,679
1.197,687
1.197,692
1.197,693
1.197,690
1.197,683
1.197,675
1.2,662
1.2,646
1.2,625
1.2,600
1.2,574
1.2,548
1.203,524
1.203,502
1.203,480
1.203,459
1.203,441
1.203,425
1.203,408
1.205,393
1.205,381
1.205,370
1.205,361
1.205,353
1.205,348
1.207,344
1.207,341
1.208,342
1.208,345
1.208,350
1.208,355
1.208,363
1.211,373
1.211,384
1.211,398
1.211,415
1.211,435
1.211,458
1.213,483
1.213,508
1.213,532
1.213,555
1.213,576
1.213,596
1.216,614
1.216,627
1.216,639
1.216,646
1.216,649
1.216,649
1.216,645
1.219,637
1.219,626
1.219,609
1.219,588
1.219,565
1.219,540
1.222,515
1.222,489
1.222,466
1.222,446
1.222,428
1.222,411
1.222,394
1.224,379
1.224,364
1.224,350
1.224,339
1.225,327
1.225,319
1.227,313
1.227,310
1.227,309
1.227,310
1.227,313
1.227,317
1.23,324
1.23,332
1.23,341
1.23,353
1.23,367
1.23,384
1.23,403
1.233,425
1.233,446
1.233,469
1.233,493
1.233,518
1.233,543
1.235,566
1.235,586
1.235,602
1.235,616
1.235,627
1.235,636
1.235,640
1.237,641
1.237,638
1.238,631
1.238,619
1.238,603
1.238,584
1.24,562
1.24,538
1.24,512
1.24,488
1.24,465
1.24,444
1.243,425
1.243,407
1.243,389
1.243,372
1.243,356
1.243,341
1.243,328
1.246,318
1.246,311
1.246,307
1.246,306
1.246,305
1.246,306
1.249,309
1.249,313
1.249,320
1.249,327
1.249,335
1.249,345
1.249,356
1.252,369
1.252,387
1.252,407
1.252,430
1.252,454
1.252,479
1.254,503
1.254,526
1.254,547
1.254,567
1.254,583
1.255,597
1.257,608
1.257,616
1.257,619
1.257,618
1.257,614
1.257,607
1.258,597
1.259,583
1.259,567
1.259,548
1.259,525
1.26,501
1.26,477
1.262,455
1.262,434
1.262,412
1.262,392
1.262,373
1.262,355
1.262,339
1.265,325
1.265,313
1.265,302
1.265,294
1.265,286
1.265,283
1.268,282
1.268,283
1.268,287
1.268,293
1.268,301
1.268,309
1.27,318
1.27,328
1.27,340
1.27,355
1.27,372
1.27,395
1.27,422
1.273,452
1.273,479
1.273,505
1.273,529
1.273,551
1.273,571
1.275,588
1.275,602
1.275,614
1.276,624
1.276,630
1.276,633
1.276,632
1.279,628
1.279,618
1.279,604
1.279,587
1.279,567
1.279,545
1.282,523
1.282,500
1.282,477
1.282,454
1.282,430
1.282,407
1.284,386
1.285,367
1.285,349
1.285,333
1.285,319
1.285,307
1.286,297
1.287,288
1.287,281
1.287,276
1.287,274
1.287,274
1.287,276
1.29,281
1.29,289
1.29,298
1.29,308
1.29,320
1.29,333
1.29,350
1.292,370
1.292,393
1.292,417
1.292,443
1.292,468
1.292,493
1.295,517
1.296,538
1.296,557
1.296,574
1.296,587
1.296,597
1.298,602
1.298,603
1.298,601
1.298,595
1.298,585
1.298,572
1.298,558
1.3,542
1.3,523
1.301,501
1.301,479
1.301,459
1.301,442
1.303,425
1.303,410
1.303,394
1.303,379
1.303,364
1.303,350
1.303,339
1.306,329
1.306,321
1.306,313
1.306,306
1.306,300
1.306,297
1.309,298
1.309,302
1.309,308
1.309,318
1.309,329
1.309,339
1.312,350
1.312,363
1.312,378
1.313,397
1.313,421
1.313,446
1.313,471
1.314,497
1.314,523
1.314,547
1.314,571
1.315,590
1.315,605
1.317,617
1.317,624
1.317,628
1.317,627
1.317,622
1.317,614
1.317,603
1.32,589
1.32,573
1.32,554
1.32,532
1.32,508
1.32,484
1.322,460
1.322,437
1.322,416
1.322,398
1.323,382
1.323,367
1.325,353
1.325,339
1.325,328
1.325,317
1.325,309
1.325,304
1.325,300
1.328,298
1.328,298
1.328,300
1.328,304
1.328,308
1.328,312
1.33,318
1.331,325
1.331,335
1.331,347
1.331,363
1.331,382
1.331,402
1.333,424
1.333,446
1.333,469
1.333,494
1.333,516
1.333,538
1.336,555
1.336,570
1.336,584
1.336,595
1.336,602
1.336,606
1.339,605
1.339,598
1.339,589
1.339,576
1.339,561
1.339,543
1.34,523
1.341,500
1.341,478
1.341,457
1.341,436
1.342,416
1.342,397
1.344,380
1.344,364
1.344,349
1.344,336
1.344,325
1.344,317
1.344,311
1.347,304
1.347,299
1.347,296
1.347,295
1.347,296
1.347,298
1.35,302
1.35,307
1.35,315
1.35,326
1.35,337
1.35,351
1.352,369
1.352,388
1.352,409
1.353,430
1.353,451
1.353,474
1.353,498
1.355,520
1.355,540
1.355,557
1.355,572
1.355,584
1.356,594
1.358,598
1.358,599
1.358,596
1.358,591
1.358,582
1.358,570
1.359,554
1.361,534
1.361,513
1.361,488
1.361,464
1.361,442
1.361,420
1.363,399
1.363,380
1.363,362
1.363,345
1.363,329
1.363,314
1.366,301
1.366,289
1.366,279
1.366,269
1.366,262
1.366,257
1.367,255
1.369,257
1.369,262
1.369,270
1.369,279
1.369,289
1.369,300
1.371,313
1.371,328
1.371,347
1.371,367
1.371,390
1.371,414
1.372,439
1.374,465
1.374,489
1.374,509
1.374,528
1.374,542
1.375,554
1.376,564
1.376,573
1.376,578
1.377,580
1.377,578
1.377,574
1.379,566
1.379,553
1.379,538
1.379,520
1.379,500
1.379,478
1.379,456
1.382,435
1.382,417
1.382,400
1.382,383
1.382,366
1.382,350
1.385,334
1.385,320
1.385,308
1.385,299
1.385,292
1.385,286
1.385,282
1.388,279
1.388,276
1.388,274
1.388,274
1.388,276
1.388,280
1.39,287
1.39,296
1.39,305
1.39,317
1.39,332
1.39,351
1.393,373
1.393,397
1.393,421
1.393,445
1.393,468
1.393,491
1.393,513
1.396,534
1.396,551
1.396,566
1.396,578
1.396,587
1.396,592
1.399,591
1.399,585
1.399,573
1.399,558
1.399,540
1.399,521
1.4,499
1.401,475
1.401,450
1.401,426
1.401,403
1.401,382
1.401,362
1.404,344
1.404,330
1.404,317
1.404,305
1.404,293
1.404,283
1.407,275
1.407,269
1.407,265
1.407,264
1.407,264
1.407,266
1.407,269
1.409,274
1.409,281
1.409,289
1.409,298
1.41,309
1.41,321
1.412,336
1.412,354
1.412,375
1.412,399
1.412,422
1.412,446
1.412,469
1.414,493
1.415,515
1.415,535
1.415,553
1.415,566
1.415,577
1.418,586
1.418,591
1.418,590
1.418,585
1.418,572
1.418,555
1.42,535
1.42,513
1.42,488
1.42,462
1.42,436
1.42,411
1.42,389
1.423,367
1.423,348
1.423,330
1.423,315
1.423,302
1.423,290
1.425,279
1.425,268
1.425,258
1.425,250
1.426,246
1.426,243
1.426,244
1.429,248
1.429,254
1.429,261
1.429,268
1.429,276
1.429,286
1.431,299
1.431,313
1.431,330
1.431,350
1.431,371
1.431,395
1.434,419
1.434,443
1.434,466
1.434,488
1.434,510
1.434,528
1.434,543
1.437,555
1.437,563
1.437,569
1.437,572
1.437,572
1.437,568
1.439,559
1.44,546
1.44,529
1.44,511
1.44,490
1.44,466
1.44,442
1.442,420
1.442,400
1.443,382
1.443,365
1.443,348
1.443,332
1.445,317
1.445,303
1.445,291
1.445,282
1.445,274
1.445,266
1.447,260
1.447,256
1.447,255
1.447,256
1.447,259
1.447,264
1.447,272
1.45,281
1.45,290
1.45,300
1.45,312
1.45,327
1.45,344
1.453,363
1.453,383
1.453,406
1.453,427
1.453,448
1.453,468
1.453,489
1.456,508
1.456,525
1.456,538
1.456,549
1.456,556
1.456,560
1.458,562
1.458,561
1.458,555
1.459,544
1.459,529
1.459,510
1.461,489
1.461,467
1.461,443
1.461,422
1.461,401
1.461,382
1.462,364
1.464,346
1.464,330
1.464,315
1.464,303
1.464,292
1.465,284
1.467,279
1.467,274
1.467,272
1.467,271
1.467,272
1.467,275
1.467,279
1.469,285
1.469,292
1.469,300
1.469,310
1.469,321
1.469,334
1.472,351
1.472,371
1.472,394
1.472,418
1.472,441
1.472,462
1.474,482
1.475,501
1.475,518
1.475,535
1.475,551
1.475,565
1.475,575
1.477,583
1.477,586
1.477,586
1.477,583
1.477,576
1.478,568
1.48,556
1.48,540
1.48,522
1.48,500
1.48,477
1.48,455
1.48,435
1.483,415
1.483,395
1.483,377
1.483,361
1.483,346
1.483,333
1.485,319
1.485,308
1.486,298
1.486,292
1.486,288
1.486,286
1.488,286
1.488,286
1.488,289
1.488,294
1.488,302
1.488,310
1.489,318
1.491,327
1.491,338
1.491,351
1.491,369
1.491,390
1.491,415
1.494,442
1.494,468
1.494,495
1.494,521
1.494,544
1.494,567
1.494,585
1.497,600
1.497,612
1.497,621
1.497,626
1.497,627
1.497,626
1.499,620
1.499,612
1.499,601
1.499,587
1.499,570
1.499,548
1.502,525
1.502,501
1.502,475
1.502,449
1.502,424
1.502,400
1.503,379
1.505,360
1.505,342
1.505,326
1.505,312
1.505,302
1.505,293
1.507,287
1.507,284
1.507,282
1.507,283
1.507,286
1.507,291
1.508,298
1.509,305
1.509,314
1.51,326
1.51,341
1.51,358
1.51,380
1.513,404
1.513,431
1.513,459
1.513,487
1.513,515
1.513,543
1.516,567
1.516,587
1.516,604
1.516,618
1.516,628
1.516,632
1.516,633
1.518,633
1.518,629
1.518,621
1.518,610
1.518,597
1.519,580
1.521,560
1.521,537
1.521,514
1.521,492
1.521,471
1.521,451
1.522,432
1.524,415
1.524,399
1.524,384
1.524,369
1.524,354
1.524,341
1.526,332
1.526,324
1.526,316
1.526,311
1.526,309
1.527,310
1.529,312
1.529,316
1.529,321
1.529,328
1.529,338
1.529,348
1.529,362
1.532,382
1.532,404
1.532,428
1.532,452
1.532,478
1.532,504
1.535,529
1.535,552
1.535,574
1.535,594
1.535,611
1.535,625
1.535,635
1.537,642
1.537,643
1.537,641
1.537,634
1.537,623
1.537,607
1.54,587
1.54,563
1.54,539
1.54,513
1.54,487
1.54,460
1.542,436
1.543,413
1.543,392
1.543,374
1.543,357
1.543,342
1.543,329
1.546,315
1.546,305
1.546,296
1.546,290
1.546,286
1.546,284
1.548,283
1.548,284
1.548,287
1.548,291
1.549,297
1.549,305
1.549,313
1.551,321
1.551,331
1.551,345
1.551,364
1.551,384
1.551,406
1.554,429
1.554,454
1.554,478
1.554,502
1.554,524
1.554,545
1.556,564
1.556,579
1.556,593
1.556,603
1.556,610
1.556,613
1.556,612
1.559,606
1.559,596
1.559,582
1.559,564
1.559,543
1.56,518
1.562,493
1.562,469
1.562,446
1.562,425
1.562,404
1.562,385
1.563,368
1.564,351
1.564,336
1.565,322
1.565,310
1.565,301
1.565,294
1.567,289
1.567,287
1.567,286
1.567,287
1.567,290
1.567,295
1.57,301
1.57,308
1.57,316
1.57,324
1.57,334
1.57,346
1.571,362
1.573,381
1.573,403
1.573,427
1.573,451
1.573,477
1.573,502
1.575,525
1.576,546
1.576,565
1.576,581
1.576,595
1.576,606
1.576,611
1.578,612
1.578,608
1.578,599
1.578,587
1.578,572
1.579,554
1.58,534
1.581,510
1.581,486
1.581,462
1.581,440
1.581,418
1.583,399
1.583,379
1.583,361
1.583,344
1.584,328
1.584,316
1.584,305
1.586,296
1.586,289
1.586,285
1.586,284
1.586,283
1.586,284
1.588,286
1.589,290
1.589,296
1.589,303
1.589,311
1.589,321
1.589,333
1.591,347
1.591,364
1.592,384
1.592,407
1.592,429
1.592,451
1.594,474
1.594,496
1.594,519
1.594,541
1.594,560
1.594,576
1.597,589
1.597,599
1.597,605
1.597,607
1.597,605
1.597,599
1.597,589
1.6,577
1.6,560
1.6,539
1.6,514
1.6,489
1.6,464
1.603,440
1.603,419
1.603,399
1.603,379
1.603,362
1.604,347
1.604,334
1.605,322
1.605,312
1.605,305
1.605,301
1.605,297
1.605,294
1.608,293
1.608,293
1.608,296
1.608,299
1.608,301
1.609,304
1.611,309
1.611,315
1.611,324
1.611,337
1.611,354
1.611,374
1.611,396
1.613,421
1.614,446
1.614,470
1.614,495
1.614,519
1.614,540
1.616,558
1.616,574
1.616,586
1.616,596
1.616,602
1.616,603
1.616,601
1.619,593
1.619,583
1.619,570
1.619,555
1.619,537
1.619,516
1.622,493
1.622,469
1.622,447
1.622,426
1.622,405
1.622,384
1.624,364
1.624,346
1.624,328
1.624,313
1.624,300
1.624,290
1.625,283
1.627,278
1.627,275
1.627,275
1.627,276
1.627,280
1.627,286
1.63,293
1.63,301
1.63,311
1.63,320
1.63,330
1.63,343
1.63,359
1.633,379
1.633,400
1.633,423
1.633,447
1.633,471
1.633,493
1.635,515
1.635,535
1.635,554
1.635,572
1.635,586
1.635,599
1.638,607
1.638,610
1.638,609
1.638,602
1.638,591
1.638,576
1.639,556
1.64,532
1.64,505
1.64,477
1.641,450
1.641,426
1.641,403
1.642,382
1.642,362
1.643,344
1.643,329
1.643,314
1.643,302
1.643,291
1.645,284
1.645,277
1.645,272
1.645,269
1.645,267
1.646,268
1.649,270
1.649,274
1.649,280
1.649,287
1.649,296
1.649,304
1.652,315
1.652,329
1.652,347
1.652,369
1.652,393
1.652,419
1.652,446
1.654,472
1.654,496
1.654,516
1.654,535
1.654,550
1.654,564
1.657,576
1.657,585
1.657,588
1.657,586
1.657,581
1.657,574
1.657,563
1.659,550
1.659,534
1.659,514
1.659,490
1.66,466
1.66,442
1.663,420
1.663,399
1.663,381
1.663,362
1.663,344
1.663,327
1.665,310
1.665,294
1.665,280
1.665,267
1.665,258
1.665,252
1.665,249
1.668,249
1.668,252
1.668,254
1.668,259
1.668,267
1.668,278
1.671,290
1.671,302
1.671,314
1.671,329
1.671,347
1.671,369
1.671,393
1.673,417
1.673,442
1.673,469
1.673,494
1.673,517
1.673,538
1.676,557
1.676,575
1.676,588
1.676,598
1.676,604
1.676,605
1.679,599
1.679,589
1.679,574
1.679,558
1.679,540
1.679,520
1.68,497
1.682,471
1.682,445
1.682,421
1.682,399
1.682,379
1.682,361
1.684,346
1.684,332
1.684,319
1.684,307
1.684,297
1.684,289
1.685,283
1.687,279
1.687,276
1.687,275
1.687,274
1.687,275
1.687,275
1.69,275
1.69,278
1.69,284
1.69,292
1.691,303
1.691,316
1.692,333
1.693,354
1.693,376
1.693,401
1.693,425
1.693,450
1.693,474
1.695,497
1.695,518
1.695,536
1.695,551
1.695,563
1.696,573
1.697,581
1.697,587
1.698,588
1.698,584
1.698,575
1.698,562
1.698,547
1.7,529
1.7,509
1.7,485
1.7,458
1.7,433
1.701,410
1.703,388
1.703,368
1.703,352
1.703,336
1.703,322
1.703,308
1.705,295
1.706,282
1.706,273
1.706,265
1.706,259
1.706,255
1.706,255
1.708,259
1.708,265
1.709,274
1.709,285
1.709,296
1.709,308
1.711,319
1.711,332
1.711,349
1.711,369
1.711,391
1.711,416
1.711,442
1.714,468
1.714,493
1.714,515
1.714,536
1.715,553
1.715,567
1.717,579
1.717,589
1.717,595
1.717,597
1.717,595
1.717,588
1.72,578
1.72,563
1.72,546
1.72,526
1.72,503
1.72,478
1.721,453
1.723,429
1.723,406
1.723,386
1.723,367
1.723,352
1.723,337
1.725,324
1.725,312
1.725,301
1.725,292
1.726,287
1.726,284
1.726,282
1.727,280
1.727,282
1.728,286
1.728,292
1.728,298
1.728,304
1.731,311
1.731,319
1.731,329
1.731,342
1.731,359
1.731,378
1.733,399
1.733,421
1.733,443
1.733,466
1.733,488
1.733,510
1.733,530
1.735,548
1.735,563
1.735,576
1.736,586
1.736,594
1.736,599
1.739,600
1.739,601
1.739,596
1.739,588
1.739,575
1.739,559
1.739,540
1.741,521
1.741,500
1.741,479
1.741,459
1.741,441
1.741,425
1.744,410
1.744,395
1.744,382
1.744,368
1.744,356
1.744,347
1.747,340
1.747,338
1.747,339
1.747,343
1.747,346
1.747,350
1.747,354
1.75,361
1.75,369
1.75,378
1.75,389
1.75,400
1.75,413
1.752,428
1.752,447
1.752,468
1.753,491
1.753,514
1.753,537
1.753,558
1.755,579
1.755,599
1.755,616
1.755,630
1.755,641
1.755,649
1.758,655
1.758,658
1.758,658
1.758,653
1.758,645
1.758,635
1.76,622
1.76,605
1.76,586
1.76,563
1.76,540
1.76,518
1.76,498
1.763,479
1.763,462
1.763,447
1.763,433
1.763,419
1.763,407
1.765,395
1.765,384
1.765,374
1.766,363
1.766,355
1.766,350
1.766,347
1.768,349
1.768,352
1.768,356
1.768,361
1.768,368
1.768,376
1.771,385
1.771,396
1.771,412
1.771,430
1.771,451
1.771,474
1.773,497
1.773,519
1.774,541
1.774,564
1.774,586
1.774,605
1.774,622
1.777,636
1.777,646
1.777,653
1.777,657
1.777,658
1.777,654
1.78,646
1.78,633
1.78,618
1.78,599
1.78,578
1.78,555
1.78,533
1.782,512
1.782,491
1.783,469
1.783,448
1.783,429
1.783,411
1.785,394
1.785,379
1.785,366
1.785,357
1.785,351
1.785,346
1.788,344
1.788,341
1.788,341
1.788,342
1.788,344
1.788,349
1.788,355
1.79,363
1.79,371
1.79,381
1.79,392
1.79,406
1.79,425
1.792,447
1.792,471
1.792,496
1.793,521
1.793,547
1.793,573
1.793,598
1.796,621
1.796,642
1.796,660
1.796,675
1.796,684
1.796,688
1.798,689
1.798,685
1.798,675
1.798,662
1.799,643
1.799,621
1.801,595
1.801,564
1.801,532
1.801,501
1.801,472
1.801,446
1.801,423
1.804,402
1.804,385
1.804,371
1.804,359
1.804,350
1.804,343
1.807,338
1.807,336
1.807,335
1.807,335
1.807,335
1.807,336
1.807,339
1.809,343
1.809,349
1.809,356
1.809,363
1.809,372
1.81,382
1.812,396
1.812,413
1.812,433
1.813,454
1.813,478
1.813,504
1.815,529
1.815,553
1.815,575
1.815,595
1.815,612
1.816,626
1.816,638
1.818,646
1.818,648
1.818,647
1.818,642
1.818,633
1.818,622
1.82,609
1.82,593
1.82,575
1.82,554
1.82,531
1.821,508
1.821,486
1.823,463
1.823,441
1.823,419
1.823,399
1.823,381
1.824,365
1.826,351
1.826,339
1.827,330
1.827,322
1.827,317
1.827,313
1.828,312
1.828,313
1.829,317
1.829,323
1.829,331
1.829,339
1.829,347
1.831,356
1.831,366
1.832,381
1.832,399
1.832,421
1.832,444
1.834,468
1.834,492
1.834,515
1.834,538
1.834,559
1.834,579
1.834,596
1.837,611
1.837,622
1.837,630
1.837,635
1.837,636
1.837,635
1.839,631
1.839,622
1.839,609
1.839,592
1.839,572
1.839,548
1.842,524
1.842,502
1.842,481
1.843,463
1.843,443
1.843,426
1.843,411
1.845,398
1.845,387
1.845,378
1.846,371
1.846,365
1.846,360
1.848,355
1.848,352
1.848,350
1.848,349
1.848,347
1.848,347
1.848,346
1.85,346
1.85,348
1.85,352
1.85,358
1.85,369
1.85,385
1.853,405
1.853,428
1.853,450
1.853,474
1.853,499
1.853,523
1.856,545
1.856,566
1.856,585
1.856,602
1.856,615
1.856,625
1.856,630
1.858,633
1.858,631
1.858,625
1.858,617
1.858,605
1.858,589
1.861,570
1.861,549
1.861,526
1.861,505
1.861,485
1.862,466
1.862,449
1.864,434
1.864,419
1.864,406
1.864,393
1.864,383
1.864,374
1.867,366
1.867,359
1.867,353
1.867,349
1.867,348
1.867,347
1.869,348
1.869,351
1.869,357
1.869,365
1.869,373
1.869,383
1.869,395
1.872,411
1.872,429
1.872,451
1.872,473
1.872,497
1.872,521
1.875,545
1.875,567
1.875,589
1.875,609
1.875,628
1.875,642
1.875,653
1.877,660
1.877,664
1.877,664
1.877,660
1.877,653
1.877,641
1.88,627
1.88,610
1.88,590
1.88,565
1.88,541
1.88,517
1.883,495
1.883,474
1.883,454
1.883,436
1.883,419
1.883,404
1.883,392
1.886,380
1.886,371
1.886,364
1.886,357
1.886,351
1.886,346
1.888,344
1.888,344
1.888,346
1.888,350
1.888,354
1.888,360
1.889,366
1.891,372
1.891,379
1.891,389
1.891,405
1.891,423
1.891,445
1.894,468
1.894,492
1.894,516
1.894,539
1.894,560
1.894,581
1.896,598
1.896,614
1.896,629
1.896,641
1.896,649
1.896,652
1.896,650
1.899,643
1.899,631
1.899,616
1.899,599
1.899,580
1.899,559
1.902,536
1.902,513
1.902,490
1.902,469
1.902,451
1.902,433
1.903,417
1.905,403
1.905,391
1.905,380
1.905,369
1.905,360
1.906,352
1.907,345
1.907,341
1.907,339
1.907,339
1.908,341
1.908,344
1.91,348
1.91,352
1.91,358
1.91,364
1.91,373
1.91,387
1.91,403
1.913,424
1.913,447
1.913,471
1.913,494
1.913,516
1.913,537
1.916,558
1.916,578
1.916,596
1.916,610
1.916,622
1.916,632
1.916,638
1.918,642
1.918,642
1.918,639
1.918,631
1.918,619
1.918,603
1.921,584
1.921,564
1.921,542
1.921,520
1.921,498
1.921,476
1.923,456
1.923,436
1.923,418
1.923,401
1.923,383
1.923,367
1.924,353
1.926,342
1.926,335
1.926,329
1.927,326
1.927,324
1.927,324
1.929,324
1.929,327
1.929,331
1.929,337
1.929,344
1.929,354
1.93,365
1.932,379
1.932,397
1.932,417
1.932,439
1.932,463
1.933,487
1.935,513
1.935,538
1.935,562
1.935,585
1.935,605
1.936,621
1.937,634
1.937,642
1.937,647
1.938,648
1.938,645
1.938,638
1.938,627
1.94,612
1.94,594
1.94,572
1.94,550
1.94,526
1.941,504
1.943,485
1.943,466
1.943,446
1.943,425
1.943,407
1.944,390
1.944,376
1.945,364
1.945,354
1.945,346
1.945,338
1.945,332
1.945,327
1.948,324
1.948,321
1.948,320
1.948,321
1.948,323
1.948,325
1.951,329
1.951,335
1.951,345
1.951,357
1.951,372
1.951,390
1.951,412
1.953,435
1.953,461
1.953,486
1.954,512
1.954,537
1.954,560
1.956,580
1.956,597
1.956,611
1.956,622
1.956,629
1.956,632
1.956,629
1.959,621
1.959,608
1.959,593
1.959,574
1.959,553
1.959,529
1.962,503
1.962,478
1.962,454
1.962,431
1.962,410
1.962,390
1.965,372
1.965,356
1.965,342
1.965,328
1.965,316
1.965,307
1.965,300
1.967,294
1.967,292
1.967,292
1.967,293
1.967,295
1.967,299
1.97,305
1.97,313
1.97,322
1.97,333
1.97,345
1.97,358
1.971,375
1.973,396
1.973,419
1.973,444
1.973,469
1.973,494
1.973,517
1.976,538
1.976,558
1.976,576
1.976,592
1.976,605
1.977,615
1.978,621
1.978,624
1.978,623
1.978,618
1.978,610
1.978,598
1.978,582
1.981,561
1.981,537
1.981,511
1.981,486
1.981,463
1.981,441
1.984,419
1.984,400
1.984,382
1.984,366
1.985,353
1.985,341
1.985,331
1.986,323
1.986,315
1.986,309
1.986,306
1.987,305
1.987,303
1.989,302
1.989,302
1.989,304
1.989,308
1.989,313
1.989,320
1.991,330
1.991,342
1.991,358
1.991,378
1.991,400
1.991,425
1.992,451
1.994,478
1.994,505
1.994,529
1.994,552
1.994,573
1.994,591
1.997,606
1.997,618
1.997,626
1.997,632
1.997,633
1.997,629
1.997,621
2.0,610
2.0,596
2.0,578
2.0,556
2.0,532
2.0,507
2.002,484
2.002,461
2.002,439
2.002,417
2.002,397
2.002,378
2.005,361
2.005,345
2.005,332
2.005,322
2.005,314
2.005,309
2.005,305
2.008,304
2.008,305
2.008,307
2.008,311
2.008,317
2.008,325
2.011,335
2.011,345
2.011,357
2.011,371
2.011,389
2.011,410
2.012,434
2.013,459
2.013,484
2.013,508
2.014,531
2.014,553
2.014,575
2.016,594
2.016,611
2.016,626
2.016,640
2.016,651
2.017,657
2.018,659
2.019,655
2.019,648
2.019,636
2.019,621
2.019,603
2.019,581
2.021,557
2.021,534
2.022,512
2.022,493
2.022,476
2.022,461
2.024,447
2.024,434
2.024,421
2.024,408
2.024,396
2.024,386
2.025,377
2.027,370
2.027,365
2.027,361
2.027,359
2.027,359
2.027,359
2.029,360
2.03,361
2.03,364
2.03,369
2.03,375
2.03,384
2.032,398
2.032,415
2.032,436
2.032,459
2.032,483
2.032,508
2.032,531
2.035,555
2.035,576
2.035,597
2.035,615
2.035,632
2.035,645
2.038,655
2.038,660
2.038,661
2.038,657
2.038,649
2.038,636
2.038,621
2.041,603
2.041,582
2.041,559
2.041,537
2.041,515
2.041,496
2.043,478
2.043,462
2.043,447
2.043,432
2.043,418
2.044,406
2.046,395
2.046,387
2.046,380
2.046,375
2.046,370
2.046,367
2.047,365
2.049,365
2.049,367
2.049,372
2.049,379
2.049,388
2.049,397
2.051,408
2.051,421
2.051,438
2.051,458
2.051,481
2.051,505
2.051,530
2.054,554
2.054,579
2.054,602
2.054,625
2.054,645
2.054,662
2.056,675
2.057,684
2.057,690
2.057,693
2.057,694
2.057,690
2.059,681
2.059,667
2.06,650
2.06,631
2.06,610
2.06,587
2.06,562
2.062,539
2.062,518
2.062,498
2.063,481
2.063,464
2.063,449
2.064,435
2.065,422
2.065,411
2.065,401
2.065,393
2.065,386
2.065,382
2.067,379
2.067,379
2.067,380
2.068,383
2.068,386
2.068,389
2.07,394
2.07,401
2.07,410
2.07,422
2.07,437
2.07,456
2.073,480
2.073,506
2.073,531
2.073,555
2.073,581
2.073,605
2.073,630
2.076,651
2.076,670
2.076,683
2.076,693
2.076,698
2.076,698
2.078,695
2.078,688
2.078,679
2.078,666
2.078,650
2.079,630
2.079,607
2.081,582
2.081,556
2.081,531
2.081,509
2.081,489
2.081,471
2.083,456
2.084,443
2.084,430
2.084,416
2.084,403
2.084,393
2.086,386
2.086,381
2.086,379
2.086,379
2.086,378
2.087,379
2.087,381
2.089,383
2.089,387
2.089,393
2.089,401
2.089,412
2.089,423
2.092,435
2.092,450
2.092,467
2.092,486
2.092,507
2.092,527
2.092,546
2.094,566
2.094,585
2.095,603
2.095,619
2.095,634
2.095,645
2.097,652
2.097,655
2.097,655
2.097,652
2.097,644
2.098,633
2.1,619
2.1,602
2.1,583
2.1,560
2.1,536
2.1,514
2.1,492
2.103,471
2.103,451
2.103,431
2.103,412
2.103,395
2.103,381
2.105,367
2.105,356
2.105,347
2.105,341
2.106,338
2.106,338
2.106,340
2.108,343
2.108,349
2.108,357
2.108,367
2.108,378
2.108,387
2.111,396
2.111,407
2.111,422
2.111,439
2.111,460
2.111,482
2.113,505
2.113,527
2.114,551
2.114,572
2.114,590
2.114,605
2.114,618
2.117,629
2.117,637
2.117,641
2.117,642
2.117,642
2.117,638
2.12,629
2.12,616
2.12,600
2.12,581
2.12,560
2.12,536
2.12,511
2.122,487
2.122,466
2.122,447
2.122,429
2.122,413
2.122,400
2.125,388
2.125,377
2.125,366
2.125,357
2.125,350
2.125,343
2.127,338
2.127,335
2.127,334
2.127,334
2.127,334
2.128,336
2.128,339
2.13,344
2.13,351
2.13,360
2.13,371
2.13,386
2.13,404
2.133,426
2.133,451
2.133,477
2.133,503
2.133,529
2.133,552
2.133,574
2.135,593
2.135,607
2.135,618
2.135,627
2.135,632
2.136,633
2.138,631
2.138,626
2.138,617
2.138,604
2.138,589
2.138,569
2.14,548
2.14,523
2.141,498
2.141,473
2.141,449
2.141,427
2.141,406
2.143,387
2.143,370
2.143,356
2.143,343
2.144,332
2.144,323
2.146,318
2.146,315
2.146,314
2.146,315
2.146,318
2.146,321
2.146,325
2.149,332
2.149,340
2.149,348
2.149,358
2.149,368
2.149,380
2.152,394
2.152,411
2.152,432
2.152,453
2.152,475
2.152,497
2.155,517
2.155,536
2.155,554
2.155,570
2.155,584
2.155,596
2.155,603
2.158,607
2.158,608
2.158,607
2.158,603
2.158,597
2.158,587
2.16,574
2.16,559
2.16,540
2.16,520
2.16,498
2.16,477
2.161,457
2.163,438
2.163,420
2.163,402
2.163,386
2.163,370
2.163,355
2.166,341
2.166,327
2.166,316
2.166,308
2.166,303
2.166,299
2.169,297
2.169,298
2.169,300
2.169,305
2.169,312
2.169,321
2.169,331
2.171,341
2.171,354
2.171,371
2.171,391
2.171,413
2.171,437
2.174,462
2.174,486
2.174,510
2.174,534
2.174,557
2.174,578
2.174,596
2.177,611
2.177,623
2.177,632
2.177,637
2.177,638
2.177,635
2.18,628
2.18,618
2.18,605
2.18,589
2.18,570
2.18,548
2.182,524
2.182,501
2.182,482
2.182,464
2.182,448
2.182,434
2.182,420
2.185,406
2.185,392
2.185,379
2.185,367
2.185,356
2.185,349
2.187,345
2.187,341
2.187,338
2.187,336
2.187,336
2.187,338
2.188,342
2.19,346
2.19,350
2.19,354
2.19,359
2.19,368
2.19,381
2.192,399
2.193,421
2.193,445
2.193,471
2.193,496
2.194,522
2.195,546
2.195,570
2.195,592
2.196,611
2.196,627
2.196,639
2.196,646
2.198,648
2.198,646
2.198,639
2.198,628
2.199,612
2.199,594
2.201,573
2.201,549
2.201,525
2.201,501
2.201,479
2.202,458
2.202,436
2.203,415
2.203,395
2.204,377
2.204,362
2.204,350
2.204,339
2.207,329
2.207,321
2.207,314
2.207,310
2.207,308
2.207,309
2.209,313
2.209,317
2.209,324
2.209,333
2.21,344
2.21,356
2.21,370
2.211,387
2.211,407
2.211,429
2.212,452
2.212,477
2.212,504
2.214,529
2.214,553
2.214,577
2.214,599
2.214,616
2.214,630
2.214,641
2.217,650
2.217,655
2.217,658
2.217,656
2.217,649
2.217,638
2.22,622
2.22,605
2.22,585
2.22,562
2.22,539
2.22,514
2.223,493
2.223,472
2.223,452
2.223,432
2.223,413
2.223,396
2.223,381
2.226,368
2.226,358
2.226,350
2.226,344
2.226,340
2.226,336
2.228,334
2.228,334
2.228,338
2.228,344
2.228,352
2.228,361
2.228,369
2.23,380
2.23,393
2.231,409
2.231,428
2.231,449
2.231,472
2.233,496
2.233,520
2.233,546
2.233,570
2.234,593
2.234,614
2.236,630
2.236,642
2.236,651
2.236,656
2.236,659
2.236,659
2.236,655
2.239,647
2.239,634
2.239,617
2.239,597
2.239,576
2.239,552
2.241,527
2.241,503
2.241,480
2.242,459
2.242,439
2.242,421
2.242,405
2.245,391
2.245,379
2.245,368
2.245,358
2.245,349
2.245,342
2.248,336
2.248,334
2.248,333
2.248,333
2.248,333
2.248,336
2.25,341
2.25,347
2.25,356
2.25,366
2.25,377
2.25,389
2.251,405
2.253,424
2.253,446
2.253,468
2.253,490
2.253,513
2.253,536
2.256,559
2.256,581
2.256,599
2.256,615
2.256,627
2.256,637
2.256,643
2.258,645
2.258,643
2.258,639
2.258,631
2.258,619
2.258,603
2.261,583
2.261,560
2.261,536
2.261,513
2.261,490
2.261,468
2.264,447
2.264,427
2.264,407
2.264,388
2.264,370
2.264,353
2.264,339
2.266,330
2.267,323
2.267,320
2.267,317
2.267,315
2.267,316
2.269,318
2.269,322
2.269,328
2.269,336
2.269,346
2.269,356
2.269,368
2.272,383
2.272,400
2.272,420
2.272,441
2.272,463
2.272,487
2.275,510
2.275,533
2.275,555
2.275,576
2.275,593
2.275,610
2.277,624
2.277,636
2.277,646
2.277,652
2.277,654
2.277,652
2.277,646
2.28,636
2.28,621
2.28,603
2.28,580
2.28,555
2.28,530
2.282,507
2.283,484
2.283,462
2.283,440
2.283,419
2.283,399
2.283,380
2.286,365
2.286,352
2.286,341
2.286,331
2.286,323
2.286,318
2.288,315
2.288,314
2.288,314
2.288,316
2.288,321
2.288,330
2.291,340
2.291,352
2.291,365
2.291,380
2.291,399
2.291,421
2.291,445
2.293,469
2.293,493
2.294,518
2.294,542
2.294,566
2.294,590
2.296,611
2.296,629
2.296,644
2.296,654
2.296,661
2.297,662
2.297,660
2.299,653
2.299,642
2.299,629
2.299,613
2.299,595
2.299,573
2.302,548
2.302,523
2.302,500
2.302,479
2.302,458
2.302,439
2.305,423
2.305,406
2.305,391
2.305,377
2.305,365
2.305,355
2.306,347
2.307,341
2.307,338
2.307,338
2.307,340
2.307,342
2.307,347
2.31,352
2.31,357
2.31,365
2.31,375
2.31,388
2.31,402
2.311,418
2.312,439
2.312,461
2.313,487
2.313,512
2.313,535
2.313,557
2.316,578
2.316,599
2.316,616
2.316,633
2.316,647
2.316,659
2.318,666
2.318,669
2.318,668
2.318,662
2.318,652
2.318,638
2.318,621
2.321,602
2.321,582
2.321,563
2.321,542
2.321,520
2.321,499
2.324,478
2.324,458
2.324,440
2.324,423
2.324,407
2.324,392
2.325,378
2.326,366
2.327,355
2.327,347
2.327,341
2.327,337
2.327,335
2.328,334
2.329,336
2.329,341
2.329,347
2.329,355
2.329,364
2.332,373
2.332,383
2.332,396
2.332,413
2.332,432
2.332,454
2.332,478
2.335,503
2.335,527
2.335,552
2.335,575
2.335,597
2.335,615
2.337,631
2.337,642
2.337,649
2.337,653
2.337,654
2.337,652
2.337,647
2.34,637
2.34,622
2.34,604
2.34,583
2.341,560
2.341,537
2.343,515
2.343,492
2.343,471
2.343,450
2.343,431
2.343,414
2.345,398
2.345,384
2.345,373
2.345,364
2.345,358
2.345,354
2.345,352
2.348,351
2.348,350
2.348,352
2.348,355
2.348,361
2.348,367
2.351,374
2.351,382
2.351,392
2.351,405
2.351,420
2.351,438
2.352,458
2.354,479
2.354,502
2.354,525
2.354,548
2.354,572
2.354,594
2.356,614
2.357,632
2.357,647
2.357,658
2.357,665
2.357,666
2.359,665
2.36,660
2.36,653
2.36,641
2.36,625
2.361,607
2.361,586
2.361,562
2.362,537
2.362,514
2.362,492
2.362,472
2.362,454
2.364,438
2.364,422
2.364,408
2.365,396
2.365,386
2.365,378
2.365,370
2.367,365
2.367,361
2.367,359
2.367,358
2.368,360
2.368,364
2.369,370
2.369,378
2.369,386
2.369,397
2.369,409
2.37,424
2.372,443
2.372,465
2.372,489
2.372,513
2.372,535
2.372,555
2.372,577
2.375,598
2.375,619
2.375,638
2.375,653
2.375,664
2.375,674
2.377,680
2.377,684
2.378,683
2.378,680
2.378,673
2.378,662
2.378,649
2.38,633
2.38,614
2.38,591
2.381,568
2.381,544
2.381,523
2.383,502
2.383,483
2.383,465
2.383,449
2.383,434
2.383,421
2.386,408
2.386,397
2.386,389
2.386,384
2.386,381
2.386,380
2.386,381
2.389,384
2.389,389
2.389,395
2.389,402
2.389,411
2.389,421
2.391,431
2.391,443
2.391,457
2.392,474
2.392,494
2.392,517
2.392,541
2.394,566
2.394,590
2.394,612
2.394,632
2.394,650
2.394,666
2.397,680
2.397,692
2.397,698
2.397,701
2.397,701
2.397,697
2.4,690
2.4,679
2.4,665
2.4,649
2.4,630
2.4,608
2.4,584
2.403,560
2.403,539
2.403,519
2.403,499
2.403,480
2.403,462
2.405,445
2.405,429
2.405,415
2.405,403
2.405,394
2.405,386
2.405,381
2.407,377
2.408,376
2.408,375
2.408,376
2.408,380
2.408,384
2.409,391
2.409,400
2.411,409
2.411,420
2.411,433
2.411,450
2.413,470
2.413,491
2.413,515
2.413,538
2.413,561
2.413,583
2.413,604
2.416,624
2.416,641
2.416,657
2.416,671
2.416,681
2.416,686
2.419,688
2.419,686
2.419,680
2.419,669
2.419,653
2.419,633
2.419,609
2.422,582
2.422,555
2.422,530
2.422,506
2.422,485
2.422,464
2.424,446
2.424,429
2.424,414
2.424,400
2.425,388
2.425,379
2.427,372
2.427,367
2.427,363
2.427,362
2.427,361
2.427,363
2.428,367
2.43,372
2.43,380
2.43,389
2.43,399
2.43,409
2.43,421
2.432,434
2.432,451
2.432,473
2.432,495
2.432,518
2.432,539
2.432,560
2.435,581
2.435,599
2.435,616
2.435,631
2.435,641
2.435,649
2.438,653
2.438,654
2.438,652
2.438,648
2.438,642
2.438,632
2.441,619
2.441,603
2.441,585
2.441,563
2.441,542
2.441,522
2.442,503
2.443,486
2.444,470
2.444,454
2.444,440
2.444,428
2.444,416
2.446,404
2.446,392
2.446,380
2.446,369
2.446,361
2.446,355
2.446,350
2.449,347
2.449,345
2.449,345
2.449,347
2.449,352
2.449,359
2.451,369
2.451,381
2.451,396
2.452,415
2.452,437
2.452,461
2.454,486
2.454,510
2.454,534
2.454,558
2.454,580
2.454,600
2.455,618
2.457,630
2.457,640
2.457,645
2.457,647
2.457,646
2.457,642
2.46,635
2.46,625
2.46,611
2.46,594
2.46,575
2.46,553
2.46,531
2.462,511
2.462,492
2.462,475
2.462,459
2.462,444
2.462,430
2.465,417
2.465,404
2.465,391
2.465,380
2.465,370
2.465,362
2.468,355
2.468,349
2.468,345
2.468,343
2.468,345
2.468,349
2.468,355
2.471,363
2.471,371
2.471,382
2.471,394
2.471,407
2.471,423
2.473,442
2.473,463
2.473,486
2.473,509
2.473,531
2.473,553
2.473,573
2.476,591
2.477,608
2.477,622
2.477,634
2.477,642
2.477,646
2.479,647
2.479,645
2.479,640
2.479,630
2.479,617
2.479,598
2.481,578
2.481,555
2.481,531
2.481,506
2.481,483
2.481,462
2.481,443
2.484,425
2.484,409
2.484,395
2.484,383
2.484,374
2.484,366
2.487,359
2.487,353
2.487,348
2.487,346
2.487,348
2.487,353
2.488,358
2.49,365
2.49,373
2.49,381
2.49,390
2.49,401
2.49,415
2.492,432
2.492,451
2.492,472
2.493,493
2.493,517
2.493,541
2.495,563
2.495,582
2.495,599
2.495,611
2.495,621
2.495,630
2.495,637
2.498,643
2.498,646
2.498,645
2.498,641
2.498,632
2.498,620
2.5,605
2.5,587
2.5,568
2.5,546
2.5,524
2.501,502
2.501,482
2.503,463
2.503,445
2.503,429
2.503,414
2.503,401
2.503,389
2.506,379
2.506,372
2.506,367
2.506,364
2.506,360
2.506,356
2.508,353
2.508,352
2.508,353
2.508,356
2.508,361
2.508,366
2.508,374
2.511,384
2.511,396
2.511,409
2.511,426
2.511,444
2.511,466
2.513,489
2.514,514
2.514,537
2.514,560
2.514,584
2.514,605
2.514,623
2.516,637
2.517,647
2.517,653
2.517,656
2.517,657
2.517,653
2.519,647
2.519,636
2.519,622
2.519,603
2.519,580
2.519,555
2.522,529
2.522,505
2.522,483
2.522,463
2.522,445
2.522,428
2.522,413
2.524,398
2.525,385
2.525,374
2.525,364
2.525,356
2.525,348
2.527,341
2.527,337
2.527,336
2.527,336
2.527,337
2.527,341
2.527,348
2.53,356
2.53,365
2.53,374
2.53,386
2.53,399
2.53,416
2.533,436
2.533,457
2.533,479
2.533,502
2.533,525
2.533,549
2.536,570
2.536,589
2.536,604
2.536,617
2.536,629
2.536,639
2.536,643
2.539,644
2.539,643
2.539,637
2.539,628
2.54,615
2.54,600
2.541,581
2.541,559
2.541,537
2.541,515
2.541,494
2.542,473
2.542,453
2.544,435
2.544,418
2.544,403
2.544,389
2.544,378
2.544,369
2.547,362
2.547,357
2.547,353
2.547,352
2.547,352
2.547,353
2.549,357
2.549,363
2.55,369
2.55,376
2.55,383
2.55,393
2.55,405
2.552,419
2.552,435
2.552,454
2.552,473
2.552,493
2.553,512
2.555,533
2.555,553
2.555,573
2.555,591
2.555,608
2.555,621
2.556,633
2.558,643
2.558,650
2.558,654
2.558,655
2.558,652
2.558,645
2.56,634
2.561,622
2.561,608
2.561,590
2.561,568
2.561,545
2.563,523
2.563,500
2.563,478
2.563,457
2.563,437
2.564,417
2.564,399
2.566,384
2.566,371
2.566,361
2.566,354
2.566,347
2.566,343
2.569,342
2.569,344
2.569,348
2.569,355
2.569,363
2.569,374
2.569,385
2.571,398
2.571,413
2.571,431
2.571,448
2.571,467
2.571,487
2.574,507
2.574,526
2.574,546
2.574,567
2.574,586
2.574,605
2.576,623
2.577,636
2.577,647
2.577,655
2.577,661
2.577,663
2.577,663
2.579,658
2.579,650
2.579,640
2.579,627
2.579,612
2.579,593
2.582,572
2.582,552
2.582,533
2.582,516
2.582,498
2.582,481
2.582,465
2.585,452
2.585,439
2.585,427
2.585,415
2.585,404
2.585,394
2.588,386
2.588,378
2.588,371
2.588,365
2.588,361
2.588,359
2.59,362
2.59,367
2.59,376
2.59,387
2.59,399
2.59,414
2.59,432
2.593,454
2.593,477
2.593,503
2.594,528
2.594,552
2.594,575
2.596,595
2.596,614
2.596,631
2.596,645
2.596,657
2.596,667
2.597,672
2.599,673
2.599,671
2.599,663
2.599,651
2.599,635
2.599,617
2.601,597
2.601,575
2.601,551
2.601,527
2.601,505
2.601,484
2.604,466
2.604,449
2.604,433
2.604,418
2.604,404
2.604,391
2.604,381
2.607,371
2.607,364
2.607,359
2.607,355
2.607,353
2.607,353
2.609,356
2.609,360
2.609,365
2.61,371
2.61,377
2.61,385
2.61,394
2.612,408
2.612,423
2.612,442
2.612,465
2.613,489
2.613,513
2.615,538
2.615,562
2.615,586
2.615,608
2.615,628
2.615,644
2.618,657
2.618,667
2.618,673
2.618,676
2.618,676
2.618,672
2.619,666
2.62,656
2.62,642
2.62,623
2.62,600
2.62,576
2.62,551
2.623,530
2.623,511
2.623,492
2.623,475
2.623,460
2.623,448
2.623,437
2.626,427
2.626,416
2.626,405
2.626,394
2.626,385
2.626,379
2.628,374
2.628,372
2.628,373
2.628,375
2.628,379
2.628,383
2.631,389
2.631,395
2.631,403
2.631,415
2.631,431
2.631,450
2.631,472
2.634,495
2.634,519
2.634,542
2.634,565
2.634,587
2.634,608
2.637,626
2.637,641
2.637,655
2.637,665
2.637,673
2.637,678
2.637,680
2.639,678
2.639,671
2.639,662
2.64,648
2.64,630
2.64,609
2.642,586
2.642,563
2.642,541
2.642,520
2.643,499
2.643,480
2.645,463
2.645,447
2.645,432
2.645,419
2.646,408
2.646,398
2.646,390
2.647,385
2.647,381
2.647,378
2.647,376
2.647,376
2.647,379
2.65,382
2.65,386
2.651,393
2.651,401
2.651,411
2.651,425
2.651,441
2.653,460
2.653,481
2.653,503
2.653,524
2.653,545
2.653,566
2.655,587
2.655,607
2.655,624
2.656,639
2.656,651
2.656,661
2.658,667
2.658,670
2.658,669
2.658,666
2.658,659
2.658,649
2.658,636
2.661,619
2.661,600
2.661,579
2.661,560
2.661,543
2.661,526
2.664,509
2.664,493
2.664,477
2.664,462
2.664,449
2.664,437
2.664,426
2.666,415
2.666,402
2.666,390
2.667,380
2.667,373
2.667,369
2.669,369
2.669,370
2.669,373
2.669,377
2.669,382
2.669,390
2.671,399
2.672,409
2.672,422
2.672,440
2.672,460
2.672,483
2.673,507
2.675,531
2.675,556
2.675,579
2.675,600
2.675,618
2.675,632
2.677,644
2.677,654
2.677,660
2.677,661
2.677,658
2.677,653
2.677,643
2.68,630
2.68,614
2.68,596
2.68,575
2.68,551
2.68,527
2.683,506
2.683,487
2.683,469
2.683,452
2.683,435
2.683,420
2.686,408
2.686,397
2.686,387
2.686,378
2.686,369
2.686,363
2.687,360
2.688,358
2.688,357
2.688,357
2.688,360
2.688,364
2.689,369
2.691,376
2.691,384
2.691,393
2.691,405
2.691,420
2.691,438
2.691,460
2.693,484
2.694,509
2.694,533
2.694,558
2.694,580
2.694,600
2.696,617
2.696,632
2.696,645
2.696,655
2.696,662
2.696,664
2.699,663
2.699,658
2.699,650
2.699,639
2.699,625
2.699,608
2.699,588
2.701,565
2.701,542
2.701,521
2.702,503
2.702,485
2.702,469
2.705,455
2.705,442
2.705,430
2.705,419
2.705,412
2.705,405
2.706,400
2.707,396
2.707,393
2.707,391
2.707,390
2.707,391
2.707,391
2.71,391
2.71,395
2.71,402
2.71,413
2.711,426
2.711,442
2.712,460
2.712,480
2.712,502
2.713,525
2.713,547
2.713,568
2.713,586
2.716,603
2.716,618
2.716,632
2.716,645
2.716,655
2.717,664
2.718,671
2.718,673
2.718,672
2.718,668
2.718,661
2.719,651
2.719,638
2.721,622
2.721,604
2.721,583
2.721,562
2.721,541
2.722,522
2.724,504
2.724,486
2.724,470
2.724,455
2.724,443
2.724,431
2.726,421
2.726,412
2.727,404
2.727,398
2.727,394
2.727,393
2.727,394
2.729,397
2.729,400
2.729,405
2.729,412
2.729,419
2.729,429
2.731,440
2.731,454
2.731,470
2.732,489
2.732,511
2.732,534
2.732,559
2.735,583
2.735,605
2.735,627
2.735,647
2.735,666
2.735,680
2.737,691
2.737,698
2.737,702
2.737,703
2.737,703
2.737,699
2.74,691
2.74,677
2.74,661
2.74,641
2.74,618
2.74,595
2.74,570
2.743,548
2.743,528
2.743,508
2.743,490
2.743,473
2.743,458
2.745,445
2.745,434
2.745,424
2.745,415
2.745,408
2.746,402
2.746,397
2.748,394
2.748,393
2.748,394
2.748,396
2.748,400
2.748,404
2.751,410
2.751,417
2.751,426
2.751,438
2.751,452
2.751,471
2.754,493
2.754,516
2.754,539
2.754,562
2.754,585
2.754,608
2.754,629
2.756,647
2.756,663
2.756,676
2.756,685
2.756,691
2.756,692
2.759,691
2.759,687
2.759,680
2.759,669
2.759,655
2.759,637
2.76,617
2.761,595
2.761,572
2.761,548
2.761,524
2.761,501
2.762,479
2.764,459
2.764,442
2.764,428
2.764,416
2.764,404
2.764,393
2.767,385
2.767,380
2.767,377
2.767,377
2.767,378
2.767,379
2.767,381
2.77,385
2.77,391
2.77,398
2.77,406
2.77,416
2.77,427
2.773,442
2.773,460
2.773,481
2.773,503
2.773,525
2.773,547
2.774,569
2.775,590
2.775,611
2.775,630
2.776,645
2.776,657
2.776,665
2.778,670
2.778,673
2.778,675
2.778,672
2.778,664
2.779,654
2.781,640
2.781,623
2.781,604
2.781,582
2.781,558
2.781,535
2.781,512
2.784,491
2.784,472
2.784,455
2.784,440
2.784,425
2.784,411
2.786,398
2.786,387
2.786,378
2.786,371
2.786,365
2.786,363
2.787,362
2.789,364
2.789,367
2.789,371
2.789,377
2.789,383
2.789,391
2.792,402
2.792,414
2.792,428
2.792,444
2.792,461
2.792,480
2.794,500
2.794,522
2.794,544
2.794,565
2.794,586
2.794,605
2.795,621
2.797,634
2.797,644
2.797,650
2.797,654
2.797,654
2.798,650
2.8,642
2.8,631
2.8,615
2.8,597
2.8,577
2.8,554
2.8,530
2.803,507
2.803,485
2.803,464
2.803,445
2.803,428
2.803,411
2.805,396
2.805,383
2.805,371
2.805,361
2.805,352
2.805,345
2.808,341
2.808,338
2.808,337
2.808,338
2.808,341
2.808,346
2.808,354
2.81,362
2.81,370
2.81,378
2.81,388
2.81,401
2.81,417
2.813,436
2.813,458
2.813,482
2.813,505
2.813,527
2.813,549
2.813,570
2.816,590
2.816,608
2.816,623
2.816,635
2.816,641
2.816,644
2.818,645
2.818,643
2.818,637
2.819,627
2.819,613
2.819,596
2.821,577
2.821,556
2.821,534
2.821,513
2.821,492
2.821,473
2.822,454
2.824,434
2.824,415
2.824,397
2.824,382
2.824,367
2.824,355
2.826,344
2.827,336
2.827,330
2.827,325
2.827,323
2.827,322
2.827,325
2.829,331
2.829,339
2.829,348
2.829,357
2.83,367
2.83,379
2.832,393
2.832,410
2.832,430
2.832,452
2.832,477
2.832,502
2.835,527
2.835,550
2.835,574
2.835,594
2.835,612
2.835,626
2.835,636
2.838,644
2.838,649
2.838,652
2.838,651
2.838,646
2.838,638
2.841,625
2.841,608
2.841,589
2.841,566
2.842,543
2.842,519
2.842,498
2.843,478
2.844,461
2.844,444
2.844,428
2.844,412
2.844,397
2.846,383
2.846,370
2.846,360
2.846,353
2.846,348
2.846,345
2.849,344
2.849,343
2.849,344
2.849,348
2.849,354
2.849,361
2.849,371
2.851,382
2.852,393
2.852,407
2.852,423
2.852,444
2.852,468
2.854,493
2.854,518
2.854,543
2.854,565
2.854,587
2.854,606
2.854,623
2.857,637
2.857,650
2.857,659
2.857,664
2.857,664
2.857,661
2.86,655
2.86,648
2.86,637
2.86,623
2.86,607
2.86,588
2.863,566
2.863,544
2.863,525
2.863,508
2.863,492
2.863,476
2.863,461
2.865,445
2.865,430
2.865,415
2.865,401
2.865,387
2.865,377
2.868,369
2.868,363
2.868,361
2.868,362
2.868,365
2.868,371
2.868,380
2.871,390
2.871,402
2.871,416
2.871,430
2.871,446
2.871,464
2.873,485
2.873,509
2.873,534
2.873,558
2.874,582
2.874,604
2.876,623
2.876,640
2.876,654
2.877,665
2.877,673
2.877,680
2.877,684
2.879,686
2.879,686
2.879,683
2.879,676
2.879,666
2.879,655
2.881,638
2.881,619
2.881,596
2.881,571
2.881,545
2.881,523
2.881,501
2.884,480
2.884,461
2.884,444
2.884,430
2.884,417
2.884,406
2.887,397
2.887,390
2.887,386
2.887,386
2.887,389
2.887,391
2.89,394
2.89,396
2.89,400
2.89,404
2.89,408
2.89,413
2.89,420
2.892,430
2.892,443
2.892,460
2.892,480
2.892,503
2.893,528
2.895,552
2.895,575
2.895,595
2.895,615
2.895,631
2.895,646
2.895,658
2.898,668
2.898,674
2.898,678
2.898,677
2.898,672
2.898,662
2.901,649
2.901,633
2.901,616
2.901,594
2.901,571
2.901,548
2.903,526
2.903,504
2.903,483
2.903,463
2.903,445
2.904,428
2.904,412
2.906,398
2.906,387
2.906,378
2.906,370
2.906,364
2.906,360
2.909,358
2.909,358
2.909,361
2.909,365
2.909,371
2.909,378
2.909,386
2.911,396
2.911,407
2.911,421
2.911,437
2.911,456
2.911,476
2.914,499
2.914,521
2.914,543
2.914,565
2.914,585
2.915,606
2.917,623
2.917,638
2.917,651
2.917,661
2.917,667
2.917,669
2.917,668
2.92,663
2.92,656
2.92,646
2.92,633
2.92,617
2.92,597
2.922,575
2.922,552
2.922,528
2.923,506
2.923,485
2.923,467
2.923,452
2.925,438
2.925,426
2.925,416
2.925,407
2.925,397
2.926,388
2.928,380
2.928,374
2.928,372
2.928,373
2.928,374
2.928,375
2.93,379
2.93,383
2.93,388
2.93,395
2.93,404
2.93,416
2.93,431
2.933,451
2.933,473
2.933,497
2.933,521
2.933,544
2.933,567
2.935,587
2.935,606
2.935,622
2.936,636
2.936,646
2.936,655
2.936,659
2.939,661
2.939,659
2.939,655
2.939,646
2.939,633
2.939,616
2.941,596
2.941,575
2.941,552
2.941,529
2.941,508
2.941,487
2.944,469
2.944,451
2.944,435
2.944,421
2.944,407
2.945,395
2.945,386
2.947,379
2.947,375
2.947,371
2.947,368
2.947,366
2.947,365
2.95,367
2.95,371
2.95,376
2.95,381
2.95,387
2.95,395
2.95,403
2.952,415
2.952,430
2.952,447
2.952,469
2.952,493
2.952,517
2.955,542
2.955,567
2.955,589
2.955,612
2.955,631
2.955,648
2.958,662
2.958,672
2.958,678
2.958,680
2.958,677
2.958,671
2.958,662
2.96,649
2.961,633
2.961,615
2.961,594
2.961,570
2.961,546
2.963,525
2.963,504
2.963,484
2.963,466
2.964,450
2.964,436
2.964,423
2.966,412
2.966,402
2.966,394
2.966,389
2.966,385
2.967,382
2.969,382
2.969,384
2.969,388
2.969,392
2.97,397
2.97,405
2.971,414
2.971,421
2.971,431
2.971,442
2.971,456
2.971,475
2.971,497
2.974,520
2.974,544
2.974,568
2.974,591
2.974,612
2.974,632
2.977,651
2.977,667
2.977,678
2.977,686
2.978,690
2.978,690
2.978,687
2.979,681
2.979,671
2.979,659
2.979,643
2.979,625
2.98,605
2.982,581
2.982,557
2.982,536
2.982,516
2.982,497
2.982,478
2.985,461
2.985,446
2.985,434
2.985,423
2.985,411
2.986,399
2.986,388
2.988,380
2.988,373
2.988,368
2.988,366
2.988,366
2.988,368
2.99,373
2.99,378
2.99,386
2.99,394
2.99,404
2.99,418
2.991,435
2.993,455
2.993,476
2.993,499
2.993,522
2.993,545
2.994,568
2.995,591
2.995,613
2.996,633
2.996,649
2.996,663
2.996,675
2.998,683
2.998,686
2.998,685
2.998,680
2.998,671
2.998,658
2.999,643
